일련번호,시간,하중,변위,테이블,강도,변형율
,[sec],[kgf],[mm],[mm],[kgf/mm²],[%]
1,0.000,0.0,0.000,0.000,0.000,0.00
2,0.000,14.0,0.000,0.070,0.359,0.00
3,0.010,16.5,0.080,0.080,0.423,8.00
4,0.026,19.0,0.100,0.100,0.487,10.00
5,0.042,21.7,0.110,0.110,0.556,11.00
6,0.058,23.6,0.130,0.130,0.605,13.00
7,0.075,26.4,0.140,0.140,0.677,14.00
8,0.091,29.6,0.160,0.160,0.759,16.00
9,0.107,32.6,0.170,0.170,0.836,17.00
10,0.123,35.6,0.190,0.190,0.913,19.00
11,0.139,38.5,0.200,0.200,0.987,20.00
12,0.154,41.3,0.220,0.220,1.059,22.00
13,0.171,44.1,0.230,0.230,1.131,23.00
14,0.186,46.9,0.240,0.240,1.203,24.00
15,0.203,49.6,0.260,0.260,1.272,26.00
16,0.219,52.3,0.270,0.270,1.341,27.00
17,0.235,55.0,0.290,0.290,1.410,29.00
18,0.251,57.7,0.300,0.300,1.479,30.00
19,0.267,59.7,0.320,0.320,1.531,32.00
20,0.283,62.7,0.330,0.330,1.608,33.00
21,0.298,65.5,0.350,0.350,1.679,35.00
22,0.315,68.2,0.360,0.360,1.749,36.00
23,0.330,70.8,0.380,0.380,1.815,38.00
24,0.347,73.4,0.390,0.390,1.882,39.00
25,0.363,75.9,0.410,0.410,1.946,41.00
26,0.378,78.4,0.420,0.420,2.010,42.00
27,0.394,80.8,0.440,0.440,2.072,44.00
28,0.411,83.3,0.450,0.450,2.136,45.00
29,0.427,85.7,0.460,0.460,2.197,46.00
30,0.443,88.0,0.480,0.480,2.256,48.00
31,0.459,90.4,0.490,0.490,2.318,49.00
32,0.474,92.1,0.510,0.510,2.362,51.00
33,0.490,94.6,0.520,0.520,2.426,52.00
34,0.507,97.2,0.540,0.540,2.492,54.00
35,0.523,99.7,0.550,0.550,2.556,55.00
36,0.538,102.0,0.570,0.570,2.615,57.00
37,0.554,104.3,0.580,0.580,2.674,58.00
38,0.570,106.6,0.600,0.600,2.733,60.00
39,0.586,108.8,0.610,0.610,2.790,61.00
40,0.603,111.0,0.630,0.630,2.846,63.00
41,0.619,113.1,0.640,0.640,2.900,64.00
42,0.634,115.2,0.660,0.660,2.954,66.00
43,0.650,117.3,0.670,0.670,3.008,67.00
44,0.666,119.3,0.680,0.680,3.059,68.00
45,0.683,120.9,0.700,0.700,3.100,70.00
46,0.699,123.3,0.710,0.710,3.162,71.00
47,0.715,125.4,0.730,0.730,3.215,73.00
48,0.731,127.4,0.740,0.740,3.267,74.00
49,0.747,129.4,0.760,0.760,3.318,76.00
50,0.763,131.3,0.770,0.770,3.367,77.00
51,0.779,133.2,0.790,0.790,3.415,79.00
52,0.795,135.0,0.800,0.800,3.462,80.00
53,0.810,136.8,0.820,0.820,3.508,82.00
54,0.827,138.5,0.830,0.830,3.551,83.00
55,0.842,140.1,0.850,0.850,3.592,85.00
56,0.858,141.8,0.860,0.860,3.636,86.00
57,0.875,143.3,0.880,0.880,3.674,88.00
58,0.891,144.5,0.890,0.890,3.705,89.00
59,0.907,146.1,0.900,0.900,3.746,90.00
60,0.923,147.8,0.920,0.920,3.790,92.00
61,0.939,149.5,0.930,0.930,3.833,93.00
62,0.955,151.0,0.950,0.950,3.872,95.00
63,0.971,152.5,0.960,0.960,3.910,96.00
64,0.987,154.0,0.980,0.980,3.949,98.00
65,1.002,155.4,0.990,0.990,3.985,99.00
66,1.019,156.8,1.010,1.010,4.021,101.00
67,1.035,158.1,1.020,1.020,4.054,102.00
68,1.050,159.5,1.040,1.040,4.090,104.00
69,1.067,160.8,1.050,1.050,4.123,105.00
70,1.083,162.1,1.070,1.070,4.156,107.00
71,1.098,163.1,1.080,1.080,4.182,108.00
72,1.115,164.6,1.090,1.090,4.221,109.00
73,1.131,165.9,1.110,1.110,4.254,111.00
74,1.147,167.2,1.120,1.120,4.287,112.00
75,1.163,168.4,1.140,1.140,4.318,114.00
76,1.179,169.6,1.150,1.150,4.349,115.00
77,1.195,170.7,1.170,1.170,4.377,117.00
78,1.211,171.8,1.180,1.180,4.405,118.00
79,1.228,173.0,1.200,1.200,4.436,120.00
80,1.243,174.0,1.210,1.210,4.462,121.00
81,1.259,175.1,1.230,1.230,4.490,123.00
82,1.275,176.1,1.240,1.240,4.515,124.00
83,1.291,177.1,1.250,1.250,4.541,125.00
84,1.307,177.6,1.270,1.270,4.554,127.00
85,1.323,178.8,1.280,1.280,4.585,128.00
86,1.339,179.8,1.300,1.300,4.610,130.00
87,1.354,180.7,1.310,1.310,4.633,131.00
88,1.371,181.7,1.330,1.330,4.659,133.00
89,1.387,182.5,1.340,1.340,4.679,134.00
90,1.403,183.4,1.360,1.360,4.703,136.00
91,1.419,184.2,1.370,1.370,4.723,137.00
92,1.434,185.0,1.390,1.390,4.744,139.00
93,1.450,185.8,1.400,1.400,4.764,140.00
94,1.467,186.6,1.420,1.420,4.785,142.00
95,1.483,187.4,1.430,1.430,4.805,143.00
96,1.499,188.0,1.440,1.440,4.821,144.00
97,1.515,188.4,1.460,1.460,4.831,146.00
98,1.531,189.2,1.470,1.470,4.851,147.00
99,1.547,190.1,1.490,1.490,4.874,149.00
100,1.562,190.9,1.500,1.500,4.895,150.00
101,1.578,191.7,1.520,1.520,4.915,152.00
102,1.594,192.5,1.530,1.530,4.936,153.00
103,1.611,193.2,1.550,1.550,4.954,155.00
104,1.627,194.0,1.560,1.560,4.974,156.00
105,1.643,194.7,1.580,1.580,4.992,158.00
106,1.661,195.4,1.590,1.590,5.010,159.00
107,1.675,196.1,1.600,1.600,5.028,160.00
108,1.691,196.7,1.620,1.620,5.044,162.00
109,1.707,197.3,1.630,1.630,5.059,163.00
110,1.722,197.7,1.650,1.650,5.069,165.00
111,1.739,198.7,1.660,1.660,5.095,166.00
112,1.755,199.4,1.680,1.680,5.113,168.00
113,1.771,200.1,1.690,1.690,5.131,169.00
114,1.786,200.8,1.710,1.710,5.149,171.00
115,1.803,201.4,1.720,1.720,5.164,172.00
116,1.819,202.0,1.740,1.740,5.179,174.00
117,1.835,202.6,1.750,1.750,5.195,175.00
118,1.851,203.2,1.760,1.760,5.210,176.00
119,1.867,203.8,1.780,1.780,5.226,178.00
120,1.883,204.3,1.790,1.790,5.238,179.00
121,1.899,204.9,1.810,1.810,5.254,181.00
122,1.915,205.5,1.820,1.820,5.269,182.00
123,1.931,205.8,1.840,1.840,5.277,184.00
124,1.947,206.4,1.850,1.850,5.292,185.00
125,1.963,207.1,1.870,1.870,5.310,187.00
126,1.979,207.8,1.880,1.880,5.328,188.00
127,1.995,208.4,1.890,1.890,5.344,189.00
128,2.011,209.1,1.910,1.910,5.362,191.00
129,2.027,209.7,1.920,1.920,5.377,192.00
130,2.044,210.3,1.940,1.940,5.392,194.00
131,2.059,211.0,1.950,1.950,5.410,195.00
132,2.075,211.6,1.970,1.970,5.426,197.00
133,2.091,212.2,1.980,1.980,5.441,198.00
134,2.108,212.7,2.000,2.000,5.454,200.00
135,2.123,213.3,2.010,2.010,5.469,201.00
136,2.138,213.9,2.030,2.030,5.485,203.00
137,2.155,214.7,2.040,2.040,5.505,204.00
138,2.171,215.3,2.050,2.050,5.521,205.00
139,2.187,215.9,2.070,2.070,5.536,207.00
140,2.203,216.5,2.080,2.080,5.551,208.00
141,2.219,217.1,2.100,2.100,5.567,210.00
142,2.235,217.6,2.110,2.110,5.579,211.00
143,2.251,218.3,2.130,2.130,5.597,213.00
144,2.268,218.8,2.140,2.140,5.610,214.00
145,2.284,219.5,2.160,2.160,5.628,216.00
146,2.299,220.1,2.170,2.170,5.644,217.00
147,2.314,220.6,2.180,2.180,5.656,218.00
148,2.331,221.2,2.200,2.200,5.672,220.00
149,2.347,221.4,2.210,2.210,5.677,221.00
150,2.363,222.0,2.230,2.230,5.692,223.00
151,2.379,222.6,2.240,2.240,5.708,224.00
152,2.395,223.1,2.260,2.260,5.721,226.00
153,2.411,223.7,2.270,2.270,5.736,227.00
154,2.427,224.3,2.290,2.290,5.751,229.00
155,2.443,224.8,2.300,2.300,5.764,230.00
156,2.459,225.3,2.310,2.310,5.777,231.00
157,2.476,225.7,2.330,2.330,5.787,233.00
158,2.491,226.2,2.340,2.340,5.800,234.00
159,2.507,226.7,2.360,2.360,5.813,236.00
160,2.523,227.1,2.370,2.370,5.823,237.00
161,2.539,227.5,2.390,2.390,5.833,239.00
162,2.555,228.0,2.400,2.400,5.846,240.00
163,2.571,228.7,2.420,2.420,5.864,242.00
164,2.588,229.2,2.430,2.430,5.877,243.00
165,2.603,229.6,2.440,2.440,5.887,244.00
166,2.619,230.0,2.460,2.460,5.897,246.00
167,2.635,230.4,2.470,2.470,5.908,247.00
168,2.651,230.9,2.490,2.490,5.921,249.00
169,2.667,231.3,2.500,2.500,5.931,250.00
170,2.684,231.7,2.520,2.520,5.941,252.00
171,2.700,232.2,2.530,2.530,5.954,253.00
172,2.715,232.6,2.550,2.550,5.964,255.00
173,2.731,233.0,2.560,2.560,5.974,256.00
174,2.747,233.5,2.570,2.570,5.987,257.00
175,2.763,233.6,2.590,2.590,5.990,259.00
176,2.779,233.9,2.600,2.600,5.997,260.00
177,2.795,234.4,2.620,2.620,6.010,262.00
178,2.812,234.9,2.630,2.630,6.023,263.00
179,2.828,235.3,2.650,2.650,6.033,265.00
180,2.844,235.7,2.660,2.660,6.044,266.00
181,2.859,236.1,2.680,2.680,6.054,268.00
182,2.875,236.5,2.690,2.690,6.064,269.00
183,2.891,236.8,2.700,2.700,6.072,270.00
184,2.908,237.0,2.720,2.720,6.077,272.00
185,2.923,237.3,2.730,2.730,6.085,273.00
186,2.939,237.4,2.750,2.750,6.087,275.00
187,2.956,237.7,2.760,2.760,6.095,276.00
188,2.971,237.9,2.780,2.780,6.100,278.00
189,2.988,238.3,2.790,2.790,6.110,279.00
190,3.004,238.4,2.810,2.810,6.113,281.00
191,3.020,238.6,2.820,2.820,6.118,282.00
192,3.036,238.8,2.830,2.830,6.123,283.00
193,3.052,238.9,2.850,2.850,6.126,285.00
194,3.068,239.1,2.860,2.860,6.131,286.00
195,3.083,239.3,2.880,2.880,6.136,288.00
196,3.099,239.5,2.890,2.890,6.141,289.00
197,3.115,239.7,2.910,2.910,6.146,291.00
198,3.131,239.9,2.920,2.920,6.151,292.00
199,3.148,240.0,2.940,2.940,6.154,294.00
200,3.164,240.2,2.950,2.950,6.159,295.00
201,3.180,240.2,2.960,2.960,6.159,296.00
202,3.196,240.2,2.980,2.980,6.159,298.00
203,3.212,240.5,2.990,2.990,6.167,299.00
204,3.228,240.7,3.010,3.010,6.172,301.00
205,3.243,240.8,3.020,3.020,6.174,302.00
206,3.260,241.0,3.040,3.040,6.179,304.00
207,3.275,241.1,3.050,3.050,6.182,305.00
208,3.291,241.3,3.060,3.060,6.187,306.00
209,3.307,241.3,3.080,3.080,6.187,308.00
210,3.324,241.4,3.090,3.090,6.190,309.00
211,3.339,241.4,3.110,3.110,6.190,311.00
212,3.355,241.5,3.120,3.120,6.192,312.00
213,3.372,241.5,3.140,3.140,6.192,314.00
214,3.387,241.5,3.150,3.150,6.192,315.00
215,3.404,241.7,3.170,3.170,6.197,317.00
216,3.419,241.6,3.180,3.180,6.195,318.00
217,3.435,241.4,3.190,3.190,6.190,319.00
218,3.452,241.3,3.210,3.210,6.187,321.00
219,3.468,241.1,3.220,3.220,6.182,322.00
220,3.484,241.1,3.240,3.240,6.182,324.00
221,3.500,241.0,3.250,3.250,6.179,325.00
222,3.515,240.8,3.270,3.270,6.174,327.00
223,3.531,240.7,3.280,3.280,6.172,328.00
224,3.547,240.6,3.290,3.290,6.169,329.00
225,3.563,240.5,3.310,3.310,6.167,331.00
226,3.579,240.3,3.320,3.320,6.162,332.00
227,3.595,240.2,3.340,3.340,6.159,334.00
228,3.612,239.8,3.350,3.350,6.149,335.00
229,3.628,239.7,3.370,3.370,6.146,337.00
230,3.643,239.6,3.380,3.380,6.144,338.00
231,3.660,239.3,3.400,3.400,6.136,340.00
232,3.676,239.1,3.410,3.410,6.131,341.00
233,3.692,238.7,3.420,3.420,6.121,342.00
234,3.708,237.0,3.440,3.440,6.077,344.00
235,3.724,150.8,3.450,3.450,3.867,345.00
236,3.741,11.5,3.470,3.470,0.295,347.00
