일련번호,시간,하중,변위,테이블,강도,변형율
,[sec],[kgf],[mm],[mm],[kgf/mm²],[%]
1,0.000,0.0,0.000,0.000,0.000,0.00
2,0.000,13.4,0.000,0.070,0.344,0.00
3,0.011,16.4,0.090,0.090,0.421,9.00
4,0.027,19.4,0.100,0.100,0.497,10.00
5,0.043,22.3,0.120,0.120,0.572,12.00
6,0.059,24.9,0.130,0.130,0.638,13.00
7,0.075,27.2,0.150,0.150,0.697,15.00
8,0.091,29.4,0.160,0.160,0.754,16.00
9,0.107,31.6,0.170,0.170,0.810,17.00
10,0.123,33.9,0.190,0.190,0.869,19.00
11,0.139,35.6,0.200,0.200,0.913,20.00
12,0.154,37.5,0.220,0.220,0.962,22.00
13,0.170,40.6,0.230,0.230,1.041,23.00
14,0.187,43.7,0.250,0.250,1.121,25.00
15,0.204,46.8,0.260,0.260,1.200,26.00
16,0.219,49.9,0.280,0.280,1.279,28.00
17,0.235,53.1,0.290,0.290,1.362,29.00
18,0.251,56.3,0.310,0.310,1.444,31.00
19,0.267,59.6,0.320,0.320,1.528,32.00
20,0.283,62.9,0.340,0.340,1.613,34.00
21,0.299,66.2,0.350,0.350,1.697,35.00
22,0.316,69.5,0.370,0.370,1.782,37.00
23,0.332,72.8,0.380,0.380,1.867,38.00
24,0.347,76.1,0.400,0.400,1.951,40.00
25,0.363,78.9,0.410,0.410,2.023,41.00
26,0.378,82.6,0.420,0.420,2.118,42.00
27,0.394,86.1,0.440,0.440,2.208,44.00
28,0.411,89.4,0.450,0.450,2.292,45.00
29,0.428,92.7,0.470,0.470,2.377,47.00
30,0.443,96.0,0.480,0.480,2.462,48.00
31,0.460,99.2,0.500,0.500,2.544,50.00
32,0.476,102.3,0.510,0.510,2.623,51.00
33,0.491,105.5,0.530,0.530,2.705,53.00
34,0.507,108.5,0.540,0.540,2.782,54.00
35,0.524,111.6,0.560,0.560,2.862,56.00
36,0.539,114.7,0.570,0.570,2.941,57.00
37,0.555,117.8,0.590,0.590,3.021,59.00
38,0.571,120.0,0.600,0.600,3.077,60.00
39,0.588,123.4,0.620,0.620,3.164,62.00
40,0.603,126.8,0.630,0.630,3.251,63.00
41,0.619,130.0,0.640,0.640,3.333,64.00
42,0.636,133.1,0.660,0.660,3.413,66.00
43,0.651,136.2,0.670,0.670,3.492,67.00
44,0.667,139.2,0.690,0.690,3.569,69.00
45,0.684,142.3,0.700,0.700,3.649,70.00
46,0.700,145.3,0.720,0.720,3.726,72.00
47,0.716,148.4,0.730,0.730,3.805,73.00
48,0.731,151.4,0.750,0.750,3.882,75.00
49,0.747,154.5,0.760,0.760,3.962,76.00
50,0.763,157.6,0.780,0.780,4.041,78.00
51,0.779,159.1,0.790,0.790,4.079,79.00
52,0.795,162.6,0.810,0.810,4.169,81.00
53,0.811,166.2,0.820,0.820,4.262,82.00
54,0.827,169.6,0.830,0.830,4.349,83.00
55,0.843,172.8,0.850,0.850,4.431,85.00
56,0.859,175.9,0.860,0.860,4.510,86.00
57,0.875,178.9,0.880,0.880,4.587,88.00
58,0.892,181.9,0.890,0.890,4.664,89.00
59,0.907,184.8,0.910,0.910,4.738,91.00
60,0.923,187.7,0.920,0.920,4.813,92.00
61,0.940,190.5,0.940,0.940,4.885,94.00
62,0.956,193.2,0.950,0.950,4.954,95.00
63,0.971,196.0,0.970,0.970,5.026,97.00
64,0.988,197.4,0.980,0.980,5.062,98.00
65,1.003,200.6,1.000,1.000,5.144,100.00
66,1.020,203.8,1.010,1.010,5.226,101.00
67,1.036,206.7,1.020,1.020,5.300,102.00
68,1.052,209.5,1.040,1.040,5.372,104.00
69,1.068,212.3,1.050,1.050,5.444,105.00
70,1.083,215.0,1.070,1.070,5.513,107.00
71,1.099,217.6,1.080,1.080,5.579,108.00
72,1.116,220.3,1.100,1.100,5.649,110.00
73,1.132,222.9,1.110,1.110,5.715,111.00
74,1.148,225.4,1.130,1.130,5.779,113.00
75,1.164,227.9,1.140,1.140,5.844,114.00
76,1.180,230.5,1.160,1.160,5.910,116.00
77,1.196,232.3,1.170,1.170,5.956,117.00
78,1.212,234.9,1.190,1.190,6.023,119.00
79,1.228,237.8,1.200,1.200,6.097,120.00
80,1.244,240.6,1.210,1.210,6.169,121.00
81,1.260,243.3,1.230,1.230,6.238,123.00
82,1.276,245.9,1.240,1.240,6.305,124.00
83,1.291,248.4,1.260,1.260,6.369,126.00
84,1.308,250.9,1.270,1.270,6.433,127.00
85,1.323,253.3,1.290,1.290,6.495,129.00
86,1.340,255.7,1.300,1.300,6.556,130.00
87,1.356,258.2,1.320,1.320,6.621,132.00
88,1.372,260.5,1.330,1.330,6.679,133.00
89,1.387,262.8,1.350,1.350,6.738,135.00
90,1.404,265.1,1.360,1.360,6.797,136.00
91,1.420,266.9,1.370,1.370,6.844,137.00
92,1.436,269.3,1.390,1.390,6.905,139.00
93,1.452,271.6,1.400,1.400,6.964,140.00
94,1.468,273.8,1.420,1.420,7.021,142.00
95,1.484,275.9,1.430,1.430,7.074,143.00
96,1.500,277.9,1.450,1.450,7.126,145.00
97,1.516,279.8,1.460,1.460,7.174,146.00
98,1.532,281.7,1.480,1.480,7.223,148.00
99,1.548,283.6,1.490,1.490,7.272,149.00
100,1.564,285.5,1.510,1.510,7.321,151.00
101,1.580,287.3,1.520,1.520,7.367,152.00
102,1.595,289.2,1.530,1.530,7.415,153.00
103,1.611,291.1,1.550,1.550,7.464,155.00
104,1.627,292.2,1.560,1.560,7.492,156.00
105,1.644,294.5,1.580,1.580,7.551,158.00
106,1.660,296.7,1.590,1.590,7.608,159.00
107,1.675,298.7,1.610,1.610,7.659,161.00
108,1.691,300.7,1.620,1.620,7.710,162.00
109,1.707,302.6,1.640,1.640,7.759,164.00
110,1.723,304.5,1.650,1.650,7.808,165.00
111,1.739,306.4,1.670,1.670,7.856,167.00
112,1.755,308.2,1.680,1.680,7.903,168.00
113,1.771,310.0,1.690,1.690,7.949,169.00
114,1.788,311.8,1.710,1.710,7.995,171.00
115,1.804,313.6,1.720,1.720,8.041,172.00
116,1.819,315.4,1.740,1.740,8.087,174.00
117,1.835,316.2,1.750,1.750,8.108,175.00
118,1.852,318.1,1.770,1.770,8.156,177.00
119,1.868,320.2,1.780,1.780,8.210,178.00
120,1.883,322.2,1.800,1.800,8.262,180.00
121,1.900,324.1,1.810,1.810,8.310,181.00
122,1.916,325.9,1.830,1.830,8.356,183.00
123,1.932,327.7,1.840,1.840,8.403,184.00
124,1.947,329.4,1.850,1.850,8.446,185.00
125,1.964,331.1,1.870,1.870,8.490,187.00
126,1.980,332.8,1.880,1.880,8.533,188.00
127,1.995,334.4,1.900,1.900,8.574,190.00
128,2.012,336.0,1.910,1.910,8.615,191.00
129,2.028,337.6,1.930,1.930,8.656,193.00
130,2.044,338.3,1.940,1.940,8.674,194.00
131,2.059,339.9,1.960,1.960,8.715,196.00
132,2.075,341.8,1.970,1.970,8.764,197.00
133,2.092,343.6,1.980,1.980,8.810,198.00
134,2.107,345.2,2.000,2.000,8.851,200.00
135,2.123,346.8,2.010,2.010,8.892,201.00
136,2.140,348.4,2.030,2.030,8.933,203.00
137,2.155,349.9,2.040,2.040,8.972,204.00
138,2.172,351.4,2.060,2.060,9.010,206.00
139,2.188,352.9,2.070,2.070,9.049,207.00
140,2.204,354.5,2.090,2.090,9.090,209.00
141,2.220,356.0,2.100,2.100,9.128,210.00
142,2.235,357.5,2.120,2.120,9.167,212.00
143,2.252,358.6,2.130,2.130,9.195,213.00
144,2.267,360.5,2.140,2.140,9.244,214.00
145,2.284,362.0,2.160,2.160,9.282,216.00
146,2.300,363.6,2.170,2.170,9.323,217.00
147,2.315,365.1,2.190,2.190,9.362,219.00
148,2.331,366.6,2.200,2.200,9.400,220.00
149,2.347,368.0,2.220,2.220,9.436,222.00
150,2.363,369.4,2.230,2.230,9.472,223.00
151,2.380,370.9,2.250,2.250,9.510,225.00
152,2.396,372.3,2.260,2.260,9.546,226.00
153,2.412,373.7,2.270,2.270,9.582,227.00
154,2.428,375.0,2.290,2.290,9.615,229.00
155,2.444,376.4,2.300,2.300,9.651,230.00
156,2.460,377.7,2.320,2.320,9.685,232.00
157,2.476,378.6,2.330,2.330,9.708,233.00
158,2.492,380.1,2.350,2.350,9.746,235.00
159,2.508,381.5,2.360,2.360,9.782,236.00
160,2.524,382.8,2.380,2.380,9.815,238.00
161,2.540,384.1,2.390,2.390,9.849,239.00
162,2.556,385.3,2.400,2.400,9.879,240.00
163,2.572,386.4,2.420,2.420,9.908,242.00
164,2.588,387.7,2.430,2.430,9.941,243.00
165,2.605,388.8,2.450,2.450,9.969,245.00
166,2.620,390.0,2.460,2.460,10.000,246.00
167,2.635,391.2,2.480,2.480,10.031,248.00
168,2.652,392.3,2.490,2.490,10.059,249.00
169,2.667,393.5,2.510,2.510,10.090,251.00
170,2.684,394.4,2.520,2.520,10.113,252.00
171,2.700,395.5,2.530,2.530,10.141,253.00
172,2.716,396.9,2.550,2.550,10.177,255.00
173,2.732,398.2,2.560,2.560,10.210,256.00
174,2.748,399.4,2.580,2.580,10.241,258.00
175,2.764,400.6,2.590,2.590,10.272,259.00
176,2.780,401.8,2.610,2.610,10.303,261.00
177,2.796,403.0,2.620,2.620,10.333,262.00
178,2.812,404.2,2.640,2.640,10.364,264.00
179,2.827,405.4,2.650,2.650,10.395,265.00
180,2.843,406.5,2.660,2.660,10.423,266.00
181,2.860,407.6,2.680,2.680,10.451,268.00
182,2.875,408.8,2.690,2.690,10.482,269.00
183,2.892,409.4,2.710,2.710,10.497,271.00
184,2.908,410.9,2.720,2.720,10.536,272.00
185,2.924,412.2,2.740,2.740,10.569,274.00
186,2.939,413.4,2.750,2.750,10.600,275.00
187,2.956,414.6,2.760,2.760,10.631,276.00
188,2.971,415.7,2.780,2.780,10.659,278.00
189,2.987,416.8,2.790,2.790,10.687,279.00
190,3.004,417.9,2.810,2.810,10.715,281.00
191,3.021,419.0,2.820,2.820,10.744,282.00
192,3.037,420.1,2.840,2.840,10.772,284.00
193,3.052,421.2,2.850,2.850,10.800,285.00
194,3.068,422.2,2.870,2.870,10.826,287.00
195,3.084,423.2,2.880,2.880,10.851,288.00
196,3.100,423.9,2.890,2.890,10.869,289.00
197,3.116,424.9,2.910,2.910,10.895,291.00
198,3.132,426.0,2.920,2.920,10.923,292.00
199,3.148,427.2,2.940,2.940,10.954,294.00
200,3.164,428.2,2.950,2.950,10.979,295.00
201,3.180,429.3,2.970,2.970,11.008,297.00
202,3.196,430.3,2.980,2.980,11.033,298.00
203,3.212,431.3,3.000,3.000,11.059,300.00
204,3.228,432.2,3.010,3.010,11.082,301.00
205,3.244,433.2,3.020,3.020,11.108,302.00
206,3.260,434.2,3.040,3.040,11.133,304.00
207,3.276,435.2,3.050,3.050,11.159,305.00
208,3.292,436.2,3.070,3.070,11.185,307.00
209,3.308,436.9,3.080,3.080,11.203,308.00
210,3.323,437.8,3.100,3.100,11.226,310.00
211,3.340,438.9,3.110,3.110,11.254,311.00
212,3.356,439.9,3.120,3.120,11.279,312.00
213,3.371,440.9,3.140,3.140,11.305,314.00
214,3.388,441.9,3.150,3.150,11.331,315.00
215,3.404,442.9,3.170,3.170,11.356,317.00
216,3.420,443.8,3.180,3.180,11.379,318.00
217,3.436,444.8,3.200,3.200,11.405,320.00
218,3.453,445.7,3.210,3.210,11.428,321.00
219,3.469,446.6,3.230,3.230,11.451,323.00
220,3.484,447.6,3.240,3.240,11.477,324.00
221,3.500,448.5,3.250,3.250,11.500,325.00
222,3.516,449.4,3.270,3.270,11.523,327.00
223,3.532,450.3,3.280,3.280,11.546,328.00
224,3.548,451.3,3.300,3.300,11.572,330.00
225,3.565,452.2,3.310,3.310,11.595,331.00
226,3.580,453.1,3.330,3.330,11.618,333.00
227,3.596,454.0,3.340,3.340,11.641,334.00
228,3.612,454.8,3.350,3.350,11.662,335.00
229,3.628,455.7,3.370,3.370,11.685,337.00
230,3.644,456.5,3.380,3.380,11.705,338.00
231,3.660,457.3,3.400,3.400,11.726,340.00
232,3.676,458.1,3.410,3.410,11.746,341.00
233,3.693,458.9,3.430,3.430,11.767,343.00
234,3.708,459.7,3.440,3.440,11.787,344.00
235,3.724,460.4,3.450,3.450,11.805,345.00
236,3.740,460.7,3.470,3.470,11.813,347.00
237,3.756,461.6,3.480,3.480,11.836,348.00
238,3.772,462.5,3.500,3.500,11.859,350.00
239,3.788,463.3,3.510,3.510,11.879,351.00
240,3.804,464.1,3.530,3.530,11.900,353.00
241,3.820,464.9,3.540,3.540,11.921,354.00
242,3.836,465.7,3.560,3.560,11.941,356.00
243,3.852,466.4,3.570,3.570,11.959,357.00
244,3.868,467.2,3.580,3.580,11.979,358.00
245,3.884,468.0,3.600,3.600,12.000,360.00
246,3.900,468.7,3.610,3.610,12.018,361.00
247,3.916,469.4,3.630,3.630,12.036,363.00
248,3.932,470.2,3.640,3.640,12.056,364.00
249,3.948,470.8,3.660,3.660,12.072,366.00
250,3.964,471.6,3.670,3.670,12.092,367.00
251,3.980,472.3,3.680,3.680,12.110,368.00
252,3.996,473.0,3.700,3.700,12.128,370.00
253,4.012,473.7,3.710,3.710,12.146,371.00
254,4.028,474.4,3.730,3.730,12.164,373.00
255,4.044,475.1,3.740,3.740,12.182,374.00
256,4.060,475.8,3.760,3.760,12.200,376.00
257,4.076,476.5,3.770,3.770,12.218,377.00
258,4.093,477.1,3.780,3.780,12.233,378.00
259,4.108,477.7,3.800,3.800,12.249,380.00
260,4.124,478.3,3.810,3.810,12.264,381.00
261,4.141,478.8,3.830,3.830,12.277,383.00
262,4.156,479.4,3.840,3.840,12.292,384.00
263,4.172,480.3,3.860,3.860,12.315,386.00
264,4.189,480.8,3.870,3.870,12.328,387.00
265,4.204,481.3,3.880,3.880,12.341,388.00
266,4.220,481.9,3.900,3.900,12.356,390.00
267,4.236,482.5,3.910,3.910,12.372,391.00
268,4.252,483.1,3.930,3.930,12.387,393.00
269,4.268,483.6,3.940,3.940,12.400,394.00
270,4.285,484.2,3.960,3.960,12.415,396.00
271,4.301,484.7,3.970,3.970,12.428,397.00
272,4.317,485.3,3.980,3.980,12.444,398.00
273,4.332,485.8,4.000,4.000,12.456,400.00
274,4.348,486.4,4.010,4.010,12.472,401.00
275,4.364,486.6,4.030,4.030,12.477,403.00
276,4.380,487.0,4.040,4.040,12.487,404.00
277,4.397,487.7,4.060,4.060,12.505,406.00
278,4.413,488.3,4.070,4.070,12.521,407.00
279,4.429,488.8,4.080,4.080,12.533,408.00
280,4.444,489.4,4.100,4.100,12.549,410.00
281,4.461,489.9,4.110,4.110,12.562,411.00
282,4.476,490.4,4.130,4.130,12.574,413.00
283,4.493,490.9,4.140,4.140,12.587,414.00
284,4.509,491.3,4.160,4.160,12.597,416.00
285,4.525,491.7,4.170,4.170,12.608,417.00
286,4.541,492.3,4.180,4.180,12.623,418.00
287,4.556,492.8,4.200,4.200,12.636,420.00
288,4.573,493.1,4.210,4.210,12.644,421.00
289,4.589,493.7,4.230,4.230,12.659,423.00
290,4.604,494.2,4.240,4.240,12.672,424.00
291,4.620,494.5,4.260,4.260,12.679,426.00
292,4.637,494.8,4.270,4.270,12.687,427.00
293,4.652,495.1,4.280,4.280,12.695,428.00
294,4.669,495.5,4.300,4.300,12.705,430.00
295,4.685,495.8,4.310,4.310,12.713,431.00
296,4.701,496.2,4.330,4.330,12.723,433.00
297,4.716,496.5,4.340,4.340,12.731,434.00
298,4.733,496.8,4.360,4.360,12.738,436.00
299,4.749,497.1,4.370,4.370,12.746,437.00
300,4.765,497.3,4.380,4.380,12.751,438.00
301,4.781,497.6,4.400,4.400,12.759,440.00
302,4.797,498.0,4.410,4.410,12.769,441.00
303,4.813,498.3,4.430,4.430,12.777,443.00
304,4.829,498.5,4.440,4.440,12.782,444.00
305,4.845,498.7,4.460,4.460,12.787,446.00
306,4.861,499.0,4.470,4.470,12.795,447.00
307,4.876,499.2,4.480,4.480,12.800,448.00
308,4.892,499.4,4.500,4.500,12.805,450.00
309,4.909,499.6,4.510,4.510,12.810,451.00
310,4.925,499.7,4.530,4.530,12.813,453.00
311,4.941,499.8,4.540,4.540,12.815,454.00
312,4.957,499.9,4.550,4.550,12.818,455.00
313,4.973,500.0,4.570,4.570,12.821,457.00
314,4.989,500.1,4.580,4.580,12.823,458.00
315,5.004,499.7,4.600,4.600,12.813,460.00
316,5.021,432.8,4.610,4.610,11.097,461.00
317,5.037,299.0,4.630,4.630,7.667,463.00
318,5.054,206.3,4.640,4.640,5.290,464.00
