일련번호,시간,하중,변위,테이블,강도,변형율
,[sec],[kgf],[mm],[mm],[kgf/mm²],[%]
1,0.000,0.0,0.000,0.000,0.000,0.00
2,0.000,18.2,0.000,0.070,0.467,0.00
3,0.011,20.7,0.080,0.080,0.531,8.00
4,0.027,23.5,0.100,0.100,0.603,10.00
5,0.042,27.3,0.110,0.110,0.700,11.00
6,0.060,30.5,0.130,0.130,0.782,13.00
7,0.075,33.4,0.140,0.140,0.856,14.00
8,0.091,36.3,0.160,0.160,0.931,16.00
9,0.108,39.1,0.170,0.170,1.003,17.00
10,0.123,42.0,0.190,0.190,1.077,19.00
11,0.139,45.0,0.200,0.200,1.154,20.00
12,0.154,48.2,0.220,0.220,1.236,22.00
13,0.171,51.4,0.230,0.230,1.318,23.00
14,0.187,54.7,0.250,0.250,1.403,25.00
15,0.203,58.1,0.260,0.260,1.490,26.00
16,0.219,61.6,0.280,0.280,1.579,28.00
17,0.235,63.3,0.290,0.290,1.623,29.00
18,0.251,67.4,0.300,0.300,1.728,30.00
19,0.266,71.5,0.320,0.320,1.833,32.00
20,0.282,75.4,0.330,0.330,1.933,33.00
21,0.299,79.1,0.350,0.350,2.028,35.00
22,0.315,82.8,0.360,0.360,2.123,36.00
23,0.331,86.5,0.380,0.380,2.218,38.00
24,0.347,90.0,0.390,0.390,2.308,39.00
25,0.363,93.5,0.410,0.410,2.397,41.00
26,0.378,97.1,0.420,0.420,2.490,42.00
27,0.394,100.5,0.440,0.440,2.577,44.00
28,0.410,104.0,0.450,0.450,2.667,45.00
29,0.427,107.5,0.470,0.470,2.756,47.00
30,0.443,109.3,0.480,0.480,2.803,48.00
31,0.459,113.4,0.500,0.500,2.908,50.00
32,0.475,117.5,0.510,0.510,3.013,51.00
33,0.491,121.3,0.520,0.520,3.110,52.00
34,0.506,124.9,0.540,0.540,3.203,54.00
35,0.523,128.5,0.550,0.550,3.295,55.00
36,0.540,132.0,0.570,0.570,3.385,57.00
37,0.555,135.5,0.580,0.580,3.474,58.00
38,0.571,138.9,0.600,0.600,3.562,60.00
39,0.587,142.3,0.610,0.610,3.649,61.00
40,0.604,145.6,0.630,0.630,3.733,63.00
41,0.620,148.9,0.640,0.640,3.818,64.00
42,0.636,152.1,0.660,0.660,3.900,66.00
43,0.652,153.8,0.670,0.670,3.944,67.00
44,0.668,157.6,0.690,0.690,4.041,69.00
45,0.683,161.3,0.700,0.700,4.136,70.00
46,0.699,164.8,0.720,0.720,4.226,72.00
47,0.715,168.2,0.730,0.730,4.313,73.00
48,0.731,171.4,0.740,0.740,4.395,74.00
49,0.747,174.6,0.760,0.760,4.477,76.00
50,0.763,177.7,0.770,0.770,4.556,77.00
51,0.779,180.8,0.790,0.790,4.636,79.00
52,0.795,183.9,0.800,0.800,4.715,80.00
53,0.812,186.9,0.820,0.820,4.792,82.00
54,0.827,189.8,0.830,0.830,4.867,83.00
55,0.843,192.8,0.850,0.850,4.944,85.00
56,0.860,194.9,0.860,0.860,4.997,86.00
57,0.876,197.3,0.880,0.880,5.059,88.00
58,0.892,200.9,0.890,0.890,5.151,89.00
59,0.907,204.3,0.910,0.910,5.238,91.00
60,0.923,207.5,0.920,0.920,5.321,92.00
61,0.940,210.5,0.940,0.940,5.397,94.00
62,0.956,213.5,0.950,0.950,5.474,95.00
63,0.972,216.4,0.960,0.960,5.549,96.00
64,0.988,219.3,0.980,0.980,5.623,98.00
65,1.004,222.1,0.990,0.990,5.695,99.00
66,1.020,224.9,1.010,1.010,5.767,101.00
67,1.036,227.7,1.020,1.020,5.838,102.00
68,1.052,230.5,1.040,1.040,5.910,104.00
69,1.068,233.3,1.050,1.050,5.982,105.00
70,1.083,234.7,1.070,1.070,6.018,107.00
71,1.100,237.8,1.080,1.080,6.097,108.00
72,1.116,241.0,1.100,1.100,6.179,110.00
73,1.132,243.9,1.110,1.110,6.254,111.00
74,1.147,246.7,1.120,1.120,6.326,112.00
75,1.163,249.4,1.140,1.140,6.395,114.00
76,1.179,252.0,1.150,1.150,6.462,115.00
77,1.195,254.6,1.170,1.170,6.528,117.00
78,1.211,257.1,1.180,1.180,6.592,118.00
79,1.227,259.5,1.200,1.200,6.654,120.00
80,1.244,262.0,1.210,1.210,6.718,121.00
81,1.259,264.3,1.230,1.230,6.777,123.00
82,1.275,266.7,1.240,1.240,6.838,124.00
83,1.292,268.7,1.260,1.260,6.890,126.00
84,1.307,271.4,1.270,1.270,6.959,127.00
85,1.324,273.9,1.290,1.290,7.023,129.00
86,1.339,276.3,1.300,1.300,7.085,130.00
87,1.357,278.7,1.310,1.310,7.146,131.00
88,1.371,281.0,1.330,1.330,7.205,133.00
89,1.387,283.3,1.340,1.340,7.264,134.00
90,1.403,285.6,1.360,1.360,7.323,136.00
91,1.420,287.8,1.370,1.370,7.379,137.00
92,1.436,290.0,1.390,1.390,7.436,139.00
93,1.451,292.3,1.400,1.400,7.495,140.00
94,1.467,294.5,1.420,1.420,7.551,142.00
95,1.484,296.7,1.430,1.430,7.608,143.00
96,1.499,298.4,1.450,1.450,7.651,145.00
97,1.515,301.0,1.460,1.460,7.718,146.00
98,1.532,303.6,1.470,1.470,7.785,147.00
99,1.548,306.2,1.490,1.490,7.851,149.00
100,1.564,308.7,1.500,1.500,7.915,150.00
101,1.580,311.1,1.520,1.520,7.977,152.00
102,1.596,313.5,1.530,1.530,8.038,153.00
103,1.612,315.8,1.550,1.550,8.097,155.00
104,1.628,318.1,1.560,1.560,8.156,156.00
105,1.644,320.4,1.580,1.580,8.215,158.00
106,1.660,322.7,1.590,1.590,8.274,159.00
107,1.676,324.8,1.610,1.610,8.328,161.00
108,1.692,327.0,1.620,1.620,8.385,162.00
109,1.707,328.5,1.630,1.630,8.423,163.00
110,1.724,330.6,1.650,1.650,8.477,165.00
111,1.740,333.0,1.660,1.660,8.538,166.00
112,1.756,335.3,1.680,1.680,8.597,168.00
113,1.772,337.5,1.690,1.690,8.654,169.00
114,1.788,339.6,1.710,1.710,8.708,171.00
115,1.804,341.7,1.720,1.720,8.762,172.00
116,1.820,343.8,1.740,1.740,8.815,174.00
117,1.836,345.8,1.750,1.750,8.867,175.00
118,1.851,347.7,1.770,1.770,8.915,177.00
119,1.868,349.7,1.780,1.780,8.967,178.00
120,1.883,351.6,1.790,1.790,9.015,179.00
121,1.900,353.5,1.810,1.810,9.064,181.00
122,1.915,355.4,1.820,1.820,9.113,182.00
123,1.932,357.1,1.840,1.840,9.156,184.00
124,1.948,359.2,1.850,1.850,9.210,185.00
125,1.964,361.2,1.870,1.870,9.262,187.00
126,1.980,363.1,1.880,1.880,9.310,188.00
127,1.996,365.0,1.900,1.900,9.359,190.00
128,2.012,366.8,1.910,1.910,9.405,191.00
129,2.028,368.6,1.920,1.920,9.451,192.00
130,2.044,370.4,1.940,1.940,9.497,194.00
131,2.060,372.2,1.950,1.950,9.544,195.00
132,2.076,374.0,1.970,1.970,9.590,197.00
133,2.091,375.7,1.980,1.980,9.633,198.00
134,2.107,377.4,2.000,2.000,9.677,200.00
135,2.123,379.0,2.010,2.010,9.718,201.00
136,2.140,380.4,2.030,2.030,9.754,203.00
137,2.156,382.3,2.040,2.040,9.803,204.00
138,2.173,384.0,2.060,2.060,9.846,206.00
139,2.188,385.6,2.070,2.070,9.887,207.00
140,2.204,387.1,2.080,2.080,9.926,208.00
141,2.220,388.6,2.100,2.100,9.964,210.00
142,2.236,390.1,2.110,2.110,10.003,211.00
143,2.252,391.5,2.130,2.130,10.038,213.00
144,2.268,392.9,2.140,2.140,10.074,214.00
145,2.284,394.3,2.160,2.160,10.110,216.00
146,2.300,395.7,2.170,2.170,10.146,217.00
147,2.316,397.2,2.190,2.190,10.185,219.00
148,2.331,398.6,2.200,2.200,10.221,220.00
149,2.347,399.6,2.210,2.210,10.246,221.00
150,2.364,401.0,2.230,2.230,10.282,223.00
151,2.380,402.6,2.240,2.240,10.323,224.00
152,2.397,404.2,2.260,2.260,10.364,226.00
153,2.411,405.7,2.270,2.270,10.403,227.00
154,2.428,407.2,2.290,2.290,10.441,229.00
155,2.444,408.6,2.300,2.300,10.477,230.00
156,2.460,410.1,2.320,2.320,10.515,232.00
157,2.476,411.4,2.330,2.330,10.549,233.00
158,2.492,412.8,2.340,2.340,10.585,234.00
159,2.508,414.2,2.360,2.360,10.621,236.00
160,2.524,415.5,2.370,2.370,10.654,237.00
161,2.540,416.8,2.390,2.390,10.687,239.00
162,2.556,417.8,2.400,2.400,10.713,240.00
163,2.572,419.1,2.420,2.420,10.746,242.00
164,2.589,420.6,2.430,2.430,10.785,243.00
165,2.605,422.0,2.450,2.450,10.821,245.00
166,2.620,423.3,2.460,2.460,10.854,246.00
167,2.636,424.6,2.470,2.470,10.887,247.00
168,2.652,425.9,2.490,2.490,10.921,249.00
169,2.668,427.0,2.500,2.500,10.949,250.00
170,2.684,428.2,2.520,2.520,10.979,252.00
171,2.700,429.3,2.530,2.530,11.008,253.00
172,2.716,430.4,2.550,2.550,11.036,255.00
173,2.732,431.4,2.560,2.560,11.062,256.00
174,2.748,432.5,2.580,2.580,11.090,258.00
175,2.764,433.5,2.590,2.590,11.115,259.00
176,2.780,434.5,2.600,2.600,11.141,260.00
177,2.796,435.6,2.620,2.620,11.169,262.00
178,2.812,436.6,2.630,2.630,11.195,263.00
179,2.828,437.6,2.650,2.650,11.221,265.00
180,2.844,438.6,2.660,2.660,11.246,266.00
181,2.860,439.5,2.680,2.680,11.269,268.00
182,2.876,440.5,2.690,2.690,11.295,269.00
183,2.892,441.5,2.710,2.710,11.321,271.00
184,2.908,442.4,2.720,2.720,11.344,272.00
185,2.924,443.4,2.730,2.730,11.369,273.00
186,2.940,444.4,2.750,2.750,11.395,275.00
187,2.957,445.4,2.760,2.760,11.421,276.00
188,2.972,446.4,2.780,2.780,11.446,278.00
189,2.988,447.1,2.790,2.790,11.464,279.00
190,3.004,448.3,2.810,2.810,11.495,281.00
191,3.020,449.3,2.820,2.820,11.521,282.00
192,3.036,450.3,2.840,2.840,11.546,284.00
193,3.052,451.2,2.850,2.850,11.569,285.00
194,3.068,452.2,2.860,2.860,11.595,286.00
195,3.084,453.1,2.880,2.880,11.618,288.00
196,3.100,454.1,2.890,2.890,11.644,289.00
197,3.116,455.0,2.910,2.910,11.667,291.00
198,3.133,455.9,2.920,2.920,11.690,292.00
199,3.148,456.8,2.940,2.940,11.713,294.00
200,3.164,457.7,2.950,2.950,11.736,295.00
201,3.180,458.6,2.970,2.970,11.759,297.00
202,3.196,459.0,2.980,2.980,11.769,298.00
203,3.213,459.9,2.990,2.990,11.792,299.00
204,3.229,460.9,3.010,3.010,11.818,301.00
205,3.244,461.8,3.020,3.020,11.841,302.00
206,3.259,462.6,3.040,3.040,11.862,304.00
207,3.276,463.5,3.050,3.050,11.885,305.00
208,3.292,464.3,3.070,3.070,11.905,307.00
209,3.308,465.0,3.080,3.080,11.923,308.00
210,3.324,465.7,3.090,3.090,11.941,309.00
211,3.340,466.4,3.110,3.110,11.959,311.00
212,3.356,467.2,3.120,3.120,11.979,312.00
213,3.373,467.8,3.140,3.140,11.995,314.00
214,3.388,468.5,3.150,3.150,12.013,315.00
215,3.404,468.9,3.170,3.170,12.023,317.00
216,3.419,469.9,3.180,3.180,12.049,318.00
217,3.437,470.7,3.200,3.200,12.069,320.00
218,3.452,471.4,3.210,3.210,12.087,321.00
219,3.468,472.1,3.220,3.220,12.105,322.00
220,3.484,472.8,3.240,3.240,12.123,324.00
221,3.500,473.4,3.250,3.250,12.138,325.00
222,3.516,474.2,3.270,3.270,12.159,327.00
223,3.533,474.9,3.280,3.280,12.177,328.00
224,3.548,475.5,3.300,3.300,12.192,330.00
225,3.564,476.2,3.310,3.310,12.210,331.00
226,3.581,476.8,3.320,3.320,12.226,332.00
227,3.596,477.5,3.340,3.340,12.244,334.00
228,3.612,477.9,3.350,3.350,12.254,335.00
229,3.628,478.5,3.370,3.370,12.269,337.00
230,3.644,479.2,3.380,3.380,12.287,338.00
231,3.660,479.9,3.400,3.400,12.305,340.00
232,3.676,480.6,3.410,3.410,12.323,341.00
233,3.693,481.2,3.420,3.420,12.338,342.00
234,3.709,481.8,3.440,3.440,12.354,344.00
235,3.725,482.4,3.450,3.450,12.369,345.00
236,3.740,482.9,3.470,3.470,12.382,347.00
237,3.756,483.5,3.480,3.480,12.397,348.00
238,3.773,484.0,3.500,3.500,12.410,350.00
239,3.788,484.5,3.510,3.510,12.423,351.00
240,3.803,484.9,3.530,3.530,12.433,353.00
241,3.821,485.4,3.540,3.540,12.446,354.00
242,3.836,485.6,3.550,3.550,12.451,355.00
243,3.852,486.0,3.570,3.570,12.462,357.00
244,3.868,486.6,3.580,3.580,12.477,358.00
245,3.884,487.1,3.600,3.600,12.490,360.00
246,3.900,487.5,3.610,3.610,12.500,361.00
247,3.916,488.0,3.630,3.630,12.513,363.00
248,3.932,488.5,3.640,3.640,12.526,364.00
249,3.948,488.9,3.650,3.650,12.536,365.00
250,3.964,489.3,3.670,3.670,12.546,367.00
251,3.981,489.7,3.680,3.680,12.556,368.00
252,3.997,490.1,3.700,3.700,12.567,370.00
253,4.012,490.4,3.710,3.710,12.574,371.00
254,4.028,490.9,3.730,3.730,12.587,373.00
255,4.044,491.4,3.740,3.740,12.600,374.00
256,4.060,491.8,3.750,3.750,12.610,375.00
257,4.076,492.1,3.770,3.770,12.618,377.00
258,4.092,492.4,3.780,3.780,12.626,378.00
259,4.108,492.8,3.800,3.800,12.636,380.00
260,4.124,493.1,3.810,3.810,12.644,381.00
261,4.140,493.4,3.830,3.830,12.651,383.00
262,4.157,493.6,3.840,3.840,12.656,384.00
263,4.172,494.0,3.850,3.850,12.667,385.00
264,4.188,494.3,3.870,3.870,12.674,387.00
265,4.205,494.6,3.880,3.880,12.682,388.00
266,4.221,494.9,3.900,3.900,12.690,390.00
267,4.236,495.2,3.910,3.910,12.697,391.00
268,4.252,495.4,3.930,3.930,12.703,393.00
269,4.269,495.8,3.940,3.940,12.713,394.00
270,4.285,496.0,3.950,3.950,12.718,395.00
271,4.300,496.2,3.970,3.970,12.723,397.00
272,4.317,496.3,3.980,3.980,12.726,398.00
273,4.333,496.6,4.000,4.000,12.733,400.00
274,4.348,496.6,4.010,4.010,12.733,401.00
275,4.364,496.7,4.030,4.030,12.736,403.00
276,4.381,496.8,4.040,4.040,12.738,404.00
277,4.396,496.8,4.050,4.050,12.738,405.00
278,4.412,496.9,4.070,4.070,12.741,407.00
279,4.428,497.0,4.080,4.080,12.744,408.00
280,4.445,497.1,4.100,4.100,12.746,410.00
281,4.460,497.1,4.110,4.110,12.746,411.00
282,4.477,497.1,4.130,4.130,12.746,413.00
283,4.492,497.2,4.140,4.140,12.749,414.00
284,4.509,497.2,4.150,4.150,12.749,415.00
285,4.525,497.3,4.170,4.170,12.751,417.00
286,4.541,497.3,4.180,4.180,12.751,418.00
287,4.557,497.3,4.200,4.200,12.751,420.00
288,4.573,497.3,4.210,4.210,12.751,421.00
289,4.589,497.3,4.230,4.230,12.751,423.00
290,4.604,497.2,4.240,4.240,12.749,424.00
291,4.620,497.1,4.250,4.250,12.746,425.00
292,4.637,497.0,4.270,4.270,12.744,427.00
293,4.653,496.8,4.280,4.280,12.738,428.00
294,4.669,496.6,4.300,4.300,12.733,430.00
295,4.685,496.5,4.310,4.310,12.731,431.00
296,4.701,495.9,4.330,4.330,12.715,433.00
297,4.717,495.2,4.340,4.340,12.697,434.00
298,4.733,487.5,4.350,4.350,12.500,435.00
299,4.749,382.9,4.370,4.370,9.818,437.00
300,4.765,262.0,4.380,4.380,6.718,438.00
301,4.782,181.5,4.400,4.400,4.654,440.00
