일련번호,시간,하중,변위,테이블,강도,변형율
,[sec],[kgf],[mm],[mm],[kgf/mm²],[%]
1,0.000,0.0,0.000,0.000,0.000,0.00
2,0.000,12.7,0.000,0.070,0.326,0.00
3,0.010,15.4,0.080,0.080,0.395,8.00
4,0.026,17.5,0.100,0.100,0.449,10.00
5,0.041,19.7,0.110,0.110,0.505,11.00
6,0.057,23.0,0.130,0.130,0.590,13.00
7,0.073,26.0,0.140,0.140,0.667,14.00
8,0.090,29.0,0.160,0.160,0.744,16.00
9,0.106,32.0,0.170,0.170,0.821,17.00
10,0.122,34.9,0.190,0.190,0.895,19.00
11,0.138,37.9,0.200,0.200,0.972,20.00
12,0.154,40.9,0.220,0.220,1.049,22.00
13,0.170,43.9,0.230,0.230,1.126,23.00
14,0.186,46.9,0.250,0.250,1.203,25.00
15,0.202,50.0,0.260,0.260,1.282,26.00
16,0.217,53.2,0.280,0.280,1.364,28.00
17,0.234,56.5,0.290,0.290,1.449,29.00
18,0.249,59.4,0.300,0.300,1.523,30.00
19,0.266,63.1,0.320,0.320,1.618,32.00
20,0.281,66.9,0.330,0.330,1.715,33.00
21,0.298,70.6,0.350,0.350,1.810,35.00
22,0.314,74.3,0.360,0.360,1.905,36.00
23,0.329,77.9,0.380,0.380,1.997,38.00
24,0.346,81.4,0.390,0.390,2.087,39.00
25,0.362,85.0,0.410,0.410,2.179,41.00
26,0.377,88.5,0.420,0.420,2.269,42.00
27,0.394,92.0,0.440,0.440,2.359,44.00
28,0.410,95.5,0.450,0.450,2.449,45.00
29,0.426,99.0,0.470,0.470,2.538,47.00
30,0.442,102.5,0.480,0.480,2.628,48.00
31,0.458,105.2,0.500,0.500,2.697,50.00
32,0.474,109.2,0.510,0.510,2.800,51.00
33,0.490,113.0,0.520,0.520,2.897,52.00
34,0.506,116.7,0.540,0.540,2.992,54.00
35,0.522,120.3,0.550,0.550,3.085,55.00
36,0.537,123.7,0.570,0.570,3.172,57.00
37,0.553,127.1,0.580,0.580,3.259,58.00
38,0.570,130.5,0.600,0.600,3.346,60.00
39,0.586,133.8,0.610,0.610,3.431,61.00
40,0.602,137.2,0.630,0.630,3.518,63.00
41,0.617,140.5,0.640,0.640,3.603,64.00
42,0.634,143.7,0.660,0.660,3.685,66.00
43,0.650,146.9,0.670,0.670,3.767,67.00
44,0.666,148.5,0.690,0.690,3.808,69.00
45,0.682,152.1,0.700,0.700,3.900,70.00
46,0.698,155.9,0.720,0.720,3.997,72.00
47,0.714,159.5,0.730,0.730,4.090,73.00
48,0.730,162.9,0.740,0.740,4.177,74.00
49,0.746,166.3,0.760,0.760,4.264,76.00
50,0.762,169.5,0.770,0.770,4.346,77.00
51,0.778,172.7,0.790,0.790,4.428,79.00
52,0.795,175.8,0.800,0.800,4.508,80.00
53,0.810,179.0,0.820,0.820,4.590,82.00
54,0.826,182.1,0.830,0.830,4.669,83.00
55,0.842,185.1,0.850,0.850,4.746,85.00
56,0.857,188.1,0.860,0.860,4.823,86.00
57,0.874,190.5,0.880,0.880,4.885,88.00
58,0.890,194.1,0.890,0.890,4.977,89.00
59,0.906,197.4,0.910,0.910,5.062,91.00
60,0.922,200.5,0.920,0.920,5.141,92.00
61,0.938,203.6,0.930,0.930,5.221,93.00
62,0.954,206.7,0.950,0.950,5.300,95.00
63,0.971,209.7,0.960,0.960,5.377,96.00
64,0.986,212.7,0.980,0.980,5.454,98.00
65,1.002,215.7,0.990,0.990,5.531,99.00
66,1.017,218.7,1.010,1.010,5.608,101.00
67,1.034,221.6,1.020,1.020,5.682,102.00
68,1.050,224.5,1.040,1.040,5.756,104.00
69,1.066,227.3,1.050,1.050,5.828,105.00
70,1.083,229.4,1.070,1.070,5.882,107.00
71,1.098,232.4,1.080,1.080,5.959,108.00
72,1.114,235.6,1.100,1.100,6.041,110.00
73,1.130,238.5,1.110,1.110,6.115,111.00
74,1.146,241.3,1.120,1.120,6.187,112.00
75,1.162,244.1,1.140,1.140,6.259,114.00
76,1.178,246.8,1.150,1.150,6.328,115.00
77,1.194,249.5,1.170,1.170,6.397,117.00
78,1.210,252.1,1.180,1.180,6.464,118.00
79,1.226,254.7,1.200,1.200,6.531,120.00
80,1.242,257.3,1.210,1.210,6.597,121.00
81,1.259,259.9,1.230,1.230,6.664,123.00
82,1.274,262.5,1.240,1.240,6.731,124.00
83,1.290,264.4,1.260,1.260,6.779,126.00
84,1.306,266.4,1.270,1.270,6.831,127.00
85,1.322,269.4,1.290,1.290,6.908,129.00
86,1.338,272.3,1.300,1.300,6.982,130.00
87,1.355,275.1,1.310,1.310,7.054,131.00
88,1.370,277.8,1.330,1.330,7.123,133.00
89,1.387,280.4,1.340,1.340,7.190,134.00
90,1.402,283.0,1.360,1.360,7.256,136.00
91,1.418,285.5,1.370,1.370,7.321,137.00
92,1.434,288.0,1.390,1.390,7.385,139.00
93,1.450,290.5,1.400,1.400,7.449,140.00
94,1.466,292.9,1.420,1.420,7.510,142.00
95,1.482,295.4,1.430,1.430,7.574,143.00
96,1.498,297.7,1.450,1.450,7.633,145.00
97,1.514,299.9,1.460,1.460,7.690,146.00
98,1.530,302.5,1.470,1.470,7.756,147.00
99,1.546,305.0,1.490,1.490,7.821,149.00
100,1.562,307.4,1.500,1.500,7.882,150.00
101,1.578,309.7,1.520,1.520,7.941,152.00
102,1.594,312.1,1.530,1.530,8.003,153.00
103,1.611,314.3,1.550,1.550,8.059,155.00
104,1.627,316.6,1.560,1.560,8.118,156.00
105,1.642,318.8,1.580,1.580,8.174,158.00
106,1.658,320.9,1.590,1.590,8.228,159.00
107,1.674,323.0,1.610,1.610,8.282,161.00
108,1.690,325.1,1.620,1.620,8.336,162.00
109,1.707,327.2,1.630,1.630,8.390,163.00
110,1.722,328.7,1.650,1.650,8.428,165.00
111,1.738,331.1,1.660,1.660,8.490,166.00
112,1.754,333.3,1.680,1.680,8.546,168.00
113,1.770,335.5,1.690,1.690,8.603,169.00
114,1.786,337.6,1.710,1.710,8.656,171.00
115,1.802,339.7,1.720,1.720,8.710,172.00
116,1.819,341.7,1.740,1.740,8.762,174.00
117,1.833,343.7,1.750,1.750,8.813,175.00
118,1.849,345.6,1.770,1.770,8.862,177.00
119,1.866,347.5,1.780,1.780,8.910,178.00
120,1.882,349.4,1.790,1.790,8.959,179.00
121,1.898,351.3,1.810,1.810,9.008,181.00
122,1.914,353.1,1.820,1.820,9.054,182.00
123,1.930,354.0,1.840,1.840,9.077,184.00
124,1.946,356.0,1.850,1.850,9.128,185.00
125,1.962,358.2,1.870,1.870,9.185,187.00
126,1.978,360.2,1.880,1.880,9.236,188.00
127,1.995,362.0,1.900,1.900,9.282,190.00
128,2.011,363.8,1.910,1.910,9.328,191.00
129,2.027,365.5,1.920,1.920,9.372,192.00
130,2.043,367.3,1.940,1.940,9.418,194.00
131,2.059,368.9,1.950,1.950,9.459,195.00
132,2.075,370.6,1.970,1.970,9.503,197.00
133,2.090,372.2,1.980,1.980,9.544,198.00
134,2.106,373.8,2.000,2.000,9.585,200.00
135,2.122,375.4,2.010,2.010,9.626,201.00
136,2.139,376.2,2.030,2.030,9.646,203.00
137,2.154,378.1,2.040,2.040,9.695,204.00
138,2.171,379.7,2.060,2.060,9.736,206.00
139,2.186,381.4,2.070,2.070,9.779,207.00
140,2.202,382.9,2.080,2.080,9.818,208.00
141,2.219,384.5,2.100,2.100,9.859,210.00
142,2.235,386.0,2.110,2.110,9.897,211.00
143,2.251,387.4,2.130,2.130,9.933,213.00
144,2.267,388.9,2.140,2.140,9.972,214.00
145,2.283,390.3,2.160,2.160,10.008,216.00
146,2.299,391.8,2.170,2.170,10.046,217.00
147,2.315,393.2,2.190,2.190,10.082,219.00
148,2.331,394.6,2.200,2.200,10.118,220.00
149,2.347,395.6,2.210,2.210,10.144,221.00
150,2.363,397.0,2.230,2.230,10.179,223.00
151,2.379,398.7,2.240,2.240,10.223,224.00
152,2.395,400.2,2.260,2.260,10.262,226.00
153,2.412,401.7,2.270,2.270,10.300,227.00
154,2.426,403.1,2.290,2.290,10.336,229.00
155,2.442,404.5,2.300,2.300,10.372,230.00
156,2.458,405.9,2.320,2.320,10.408,232.00
157,2.474,407.2,2.330,2.330,10.441,233.00
158,2.491,408.6,2.340,2.340,10.477,234.00
159,2.506,409.9,2.360,2.360,10.510,236.00
160,2.523,411.2,2.370,2.370,10.544,237.00
161,2.538,412.6,2.390,2.390,10.579,239.00
162,2.554,413.9,2.400,2.400,10.613,240.00
163,2.571,414.8,2.420,2.420,10.636,242.00
164,2.587,416.2,2.430,2.430,10.672,243.00
165,2.603,417.6,2.450,2.450,10.708,245.00
166,2.619,419.0,2.460,2.460,10.744,246.00
167,2.634,420.3,2.470,2.470,10.777,247.00
168,2.650,421.5,2.490,2.490,10.808,249.00
169,2.666,422.7,2.500,2.500,10.838,250.00
170,2.682,423.9,2.520,2.520,10.869,252.00
171,2.699,425.1,2.530,2.530,10.900,253.00
172,2.715,426.3,2.550,2.550,10.931,255.00
173,2.730,427.3,2.560,2.560,10.956,256.00
174,2.746,428.3,2.580,2.580,10.982,258.00
175,2.763,429.4,2.590,2.590,11.010,259.00
176,2.779,430.0,2.600,2.600,11.026,260.00
177,2.795,431.4,2.620,2.620,11.062,262.00
178,2.811,432.6,2.630,2.630,11.092,263.00
179,2.827,433.8,2.650,2.650,11.123,265.00
180,2.843,434.9,2.660,2.660,11.151,266.00
181,2.859,436.1,2.680,2.680,11.182,268.00
182,2.875,437.1,2.690,2.690,11.208,269.00
183,2.890,438.1,2.710,2.710,11.233,271.00
184,2.907,439.1,2.720,2.720,11.259,272.00
185,2.922,440.2,2.730,2.730,11.287,273.00
186,2.939,441.2,2.750,2.750,11.313,275.00
187,2.954,442.2,2.760,2.760,11.338,276.00
188,2.971,443.3,2.780,2.780,11.367,278.00
189,2.987,443.9,2.790,2.790,11.382,279.00
190,3.003,444.9,2.810,2.810,11.408,281.00
191,3.019,446.1,2.820,2.820,11.438,282.00
192,3.035,447.2,2.840,2.840,11.467,284.00
193,3.051,448.3,2.850,2.850,11.495,285.00
194,3.067,449.3,2.860,2.860,11.521,286.00
195,3.083,450.3,2.880,2.880,11.546,288.00
196,3.099,451.3,2.890,2.890,11.572,289.00
197,3.115,452.3,2.910,2.910,11.597,291.00
198,3.131,453.2,2.920,2.920,11.621,292.00
199,3.146,454.2,2.940,2.940,11.646,294.00
200,3.162,455.0,2.950,2.950,11.667,295.00
201,3.179,455.9,2.960,2.960,11.690,296.00
202,3.195,456.5,2.980,2.980,11.705,298.00
203,3.211,457.4,2.990,2.990,11.728,299.00
204,3.227,458.4,3.010,3.010,11.754,301.00
205,3.242,459.3,3.020,3.020,11.777,302.00
206,3.259,460.1,3.040,3.040,11.797,304.00
207,3.275,460.9,3.050,3.050,11.818,305.00
208,3.290,461.7,3.070,3.070,11.838,307.00
209,3.306,462.4,3.080,3.080,11.856,308.00
210,3.322,463.2,3.090,3.090,11.877,309.00
211,3.339,463.9,3.110,3.110,11.895,311.00
212,3.354,464.7,3.120,3.120,11.915,312.00
213,3.371,465.4,3.140,3.140,11.933,314.00
214,3.387,466.2,3.150,3.150,11.954,315.00
215,3.403,466.6,3.170,3.170,11.964,317.00
216,3.419,467.5,3.180,3.180,11.987,318.00
217,3.435,468.4,3.190,3.190,12.010,319.00
218,3.451,469.1,3.210,3.210,12.028,321.00
219,3.466,469.8,3.220,3.220,12.046,322.00
220,3.482,470.6,3.240,3.240,12.067,324.00
221,3.498,471.3,3.250,3.250,12.085,325.00
222,3.514,472.0,3.270,3.270,12.103,327.00
223,3.531,472.6,3.280,3.280,12.118,328.00
224,3.547,473.3,3.300,3.300,12.136,330.00
225,3.563,473.9,3.310,3.310,12.151,331.00
226,3.579,474.5,3.320,3.320,12.167,332.00
227,3.595,475.1,3.340,3.340,12.182,334.00
228,3.611,475.5,3.350,3.350,12.192,335.00
229,3.627,475.9,3.370,3.370,12.203,337.00
230,3.643,476.6,3.380,3.380,12.221,338.00
231,3.659,477.3,3.400,3.400,12.238,340.00
232,3.675,478.0,3.410,3.410,12.256,341.00
233,3.690,478.6,3.420,3.420,12.272,342.00
234,3.707,479.1,3.440,3.440,12.285,344.00
235,3.723,479.7,3.450,3.450,12.300,345.00
236,3.739,480.2,3.470,3.470,12.313,347.00
237,3.756,480.7,3.480,3.480,12.326,348.00
238,3.771,481.2,3.500,3.500,12.338,350.00
239,3.787,481.7,3.510,3.510,12.351,351.00
240,3.804,482.1,3.520,3.520,12.362,352.00
241,3.819,482.6,3.540,3.540,12.374,354.00
242,3.835,483.0,3.550,3.550,12.385,355.00
243,3.851,483.4,3.570,3.570,12.395,357.00
244,3.867,483.8,3.580,3.580,12.405,358.00
245,3.883,484.3,3.600,3.600,12.418,360.00
246,3.899,484.8,3.610,3.610,12.431,361.00
247,3.915,485.1,3.620,3.620,12.438,362.00
248,3.931,485.5,3.640,3.640,12.449,364.00
249,3.948,485.9,3.650,3.650,12.459,365.00
250,3.963,486.4,3.670,3.670,12.472,367.00
251,3.980,486.9,3.680,3.680,12.485,368.00
252,3.995,487.2,3.700,3.700,12.492,370.00
253,4.010,487.6,3.710,3.710,12.503,371.00
254,4.027,487.9,3.730,3.730,12.510,373.00
255,4.043,488.3,3.740,3.740,12.521,374.00
256,4.059,488.8,3.750,3.750,12.533,375.00
257,4.076,489.0,3.770,3.770,12.538,377.00
258,4.091,489.4,3.780,3.780,12.549,378.00
259,4.107,489.7,3.800,3.800,12.556,380.00
260,4.123,489.9,3.810,3.810,12.562,381.00
261,4.139,490.2,3.830,3.830,12.569,383.00
262,4.155,490.4,3.840,3.840,12.574,384.00
263,4.171,490.7,3.850,3.850,12.582,385.00
264,4.187,490.9,3.870,3.870,12.587,387.00
265,4.203,491.1,3.880,3.880,12.592,388.00
266,4.219,491.4,3.900,3.900,12.600,390.00
267,4.235,491.5,3.910,3.910,12.603,391.00
268,4.251,491.5,3.930,3.930,12.603,393.00
269,4.267,491.5,3.940,3.940,12.603,394.00
270,4.283,491.5,3.950,3.950,12.603,395.00
271,4.299,491.2,3.970,3.970,12.595,397.00
272,4.315,430.1,3.980,3.980,11.028,398.00
273,4.331,296.9,4.000,4.000,7.613,400.00
274,4.348,205.5,4.010,4.010,5.269,401.00
