일련번호,시간,하중,변위,테이블,강도,변형율
,[sec],[kgf],[mm],[mm],[kgf/mm²],[%]
1,0.000,0.0,0.000,0.000,0.000,0.00
2,0.000,6.7,0.000,0.060,0.223,0.00
3,0.010,8.0,0.080,0.080,0.267,0.16
4,0.027,9.3,0.090,0.090,0.310,0.18
5,0.042,10.6,0.110,0.110,0.353,0.22
6,0.059,12.0,0.120,0.120,0.400,0.24
7,0.075,13.3,0.140,0.140,0.443,0.28
8,0.091,14.6,0.150,0.150,0.487,0.30
9,0.107,15.9,0.170,0.170,0.530,0.34
10,0.123,17.1,0.180,0.180,0.570,0.36
11,0.139,18.1,0.200,0.200,0.603,0.40
12,0.154,19.6,0.210,0.210,0.653,0.42
13,0.171,20.8,0.230,0.230,0.693,0.46
14,0.186,22.0,0.240,0.240,0.733,0.48
15,0.203,23.2,0.260,0.260,0.773,0.52
16,0.219,24.2,0.270,0.270,0.807,0.54
17,0.235,25.0,0.290,0.290,0.833,0.58
18,0.250,25.6,0.300,0.300,0.853,0.60
19,0.266,26.2,0.320,0.320,0.873,0.64
20,0.282,26.8,0.330,0.330,0.893,0.66
21,0.298,27.2,0.350,0.350,0.907,0.70
22,0.314,27.7,0.360,0.360,0.923,0.72
23,0.331,28.3,0.370,0.370,0.943,0.74
24,0.347,28.5,0.390,0.390,0.950,0.78
25,0.363,29.0,0.400,0.400,0.967,0.80
26,0.378,29.3,0.420,0.420,0.977,0.84
27,0.394,29.4,0.430,0.430,0.980,0.86
28,0.411,29.6,0.450,0.450,0.987,0.90
29,0.427,30.1,0.460,0.460,1.003,0.92
30,0.442,30.7,0.480,0.480,1.023,0.96
31,0.459,31.5,0.490,0.490,1.050,0.98
32,0.475,32.3,0.510,0.510,1.077,1.02
33,0.490,33.2,0.520,0.520,1.107,1.04
34,0.507,34.2,0.540,0.540,1.140,1.08
35,0.523,35.1,0.550,0.550,1.170,1.10
36,0.538,35.5,0.570,0.570,1.183,1.14
37,0.555,33.8,0.580,0.580,1.127,1.16
38,0.570,31.7,0.590,0.590,1.057,1.18
39,0.587,30.1,0.610,0.610,1.003,1.22
40,0.602,29.1,0.620,0.620,0.970,1.24
41,0.618,28.3,0.640,0.640,0.943,1.28
42,0.635,27.9,0.650,0.650,0.930,1.30
43,0.651,27.7,0.670,0.670,0.923,1.34
44,0.666,27.6,0.680,0.680,0.920,1.36
45,0.683,27.8,0.700,0.700,0.927,1.40
46,0.698,28.2,0.710,0.710,0.940,1.42
47,0.715,28.4,0.730,0.730,0.947,1.46
48,0.731,28.7,0.740,0.740,0.957,1.48
49,0.747,29.2,0.760,0.760,0.973,1.52
50,0.762,30.0,0.770,0.770,1.000,1.54
51,0.779,30.3,0.790,0.790,1.010,1.58
52,0.794,31.3,0.800,0.800,1.043,1.60
53,0.811,32.6,0.810,0.810,1.087,1.62
54,0.827,33.8,0.830,0.830,1.127,1.66
55,0.843,35.0,0.840,0.840,1.167,1.68
56,0.859,36.1,0.860,0.860,1.203,1.72
57,0.874,37.1,0.870,0.870,1.237,1.74
58,0.891,38.1,0.890,0.890,1.270,1.78
59,0.906,39.0,0.900,0.900,1.300,1.80
60,0.923,39.8,0.920,0.920,1.327,1.84
61,0.938,40.5,0.930,0.930,1.350,1.86
62,0.955,41.2,0.950,0.950,1.373,1.90
63,0.972,41.7,0.960,0.960,1.390,1.92
64,0.986,42.3,0.980,0.980,1.410,1.96
65,1.003,42.6,0.990,0.990,1.420,1.98
66,1.019,43.2,1.000,1.000,1.440,2.00
67,1.035,43.7,1.020,1.020,1.457,2.04
68,1.050,44.0,1.030,1.030,1.467,2.06
69,1.067,44.4,1.050,1.050,1.480,2.10
70,1.082,44.8,1.060,1.060,1.493,2.12
71,1.098,45.1,1.080,1.080,1.503,2.16
72,1.115,45.4,1.090,1.090,1.513,2.18
73,1.131,45.7,1.110,1.110,1.523,2.22
74,1.147,46.1,1.120,1.120,1.537,2.24
75,1.163,46.4,1.140,1.140,1.547,2.28
76,1.179,46.7,1.150,1.150,1.557,2.30
77,1.195,47.2,1.170,1.170,1.573,2.34
78,1.211,47.4,1.180,1.180,1.580,2.36
79,1.227,47.8,1.190,1.190,1.593,2.38
80,1.243,48.2,1.210,1.210,1.607,2.42
81,1.259,48.7,1.220,1.220,1.623,2.44
82,1.275,49.1,1.240,1.240,1.637,2.48
83,1.291,49.5,1.250,1.250,1.650,2.50
84,1.308,50.0,1.270,1.270,1.667,2.54
85,1.323,50.4,1.280,1.280,1.680,2.56
86,1.339,50.7,1.300,1.300,1.690,2.60
87,1.355,51.1,1.310,1.310,1.703,2.62
88,1.371,51.4,1.330,1.330,1.713,2.66
89,1.387,51.7,1.340,1.340,1.723,2.68
90,1.403,52.2,1.350,1.350,1.740,2.70
91,1.419,52.4,1.370,1.370,1.747,2.74
92,1.435,52.8,1.380,1.380,1.760,2.76
93,1.451,53.1,1.400,1.400,1.770,2.80
94,1.467,53.4,1.410,1.410,1.780,2.82
95,1.483,53.7,1.430,1.430,1.790,2.86
96,1.498,54.0,1.440,1.440,1.800,2.88
97,1.515,54.3,1.460,1.460,1.810,2.92
98,1.531,54.5,1.470,1.470,1.817,2.94
99,1.547,54.9,1.490,1.490,1.830,2.98
100,1.563,55.1,1.500,1.500,1.837,3.00
101,1.579,55.4,1.510,1.510,1.847,3.02
102,1.595,55.6,1.530,1.530,1.853,3.06
103,1.612,55.9,1.540,1.540,1.863,3.08
104,1.627,56.2,1.560,1.560,1.873,3.12
105,1.643,56.5,1.570,1.570,1.883,3.14
106,1.660,56.9,1.590,1.590,1.897,3.18
107,1.675,57.0,1.600,1.600,1.900,3.20
108,1.692,57.2,1.620,1.620,1.907,3.24
109,1.707,57.4,1.630,1.630,1.913,3.26
110,1.723,57.7,1.650,1.650,1.923,3.30
111,1.739,57.9,1.660,1.660,1.930,3.32
112,1.755,58.1,1.670,1.670,1.937,3.34
113,1.772,58.3,1.690,1.690,1.943,3.38
114,1.788,58.6,1.700,1.700,1.953,3.40
115,1.804,58.8,1.720,1.720,1.960,3.44
116,1.819,59.0,1.730,1.730,1.967,3.46
117,1.835,59.3,1.750,1.750,1.977,3.50
118,1.851,59.5,1.760,1.760,1.983,3.52
119,1.868,60.0,1.780,1.780,2.000,3.56
120,1.884,60.2,1.790,1.790,2.007,3.58
121,1.900,60.4,1.810,1.810,2.013,3.62
122,1.916,60.6,1.820,1.820,2.020,3.64
123,1.932,60.8,1.830,1.830,2.027,3.66
124,1.948,61.0,1.850,1.850,2.033,3.70
125,1.963,61.3,1.860,1.860,2.043,3.72
126,1.980,61.4,1.880,1.880,2.047,3.76
127,1.995,61.6,1.890,1.890,2.053,3.78
128,2.011,61.9,1.910,1.910,2.063,3.82
129,2.027,62.2,1.920,1.920,2.073,3.84
130,2.043,62.3,1.940,1.940,2.077,3.88
131,2.059,62.5,1.950,1.950,2.083,3.90
132,2.075,62.7,1.960,1.960,2.090,3.92
133,2.091,63.0,1.980,1.980,2.100,3.96
134,2.107,63.2,1.990,1.990,2.107,3.98
135,2.123,63.3,2.010,2.010,2.110,4.02
136,2.139,63.5,2.020,2.020,2.117,4.04
137,2.156,63.7,2.040,2.040,2.123,4.08
138,2.171,64.0,2.050,2.050,2.133,4.10
139,2.188,64.1,2.070,2.070,2.137,4.14
140,2.203,64.3,2.080,2.080,2.143,4.16
141,2.219,64.5,2.100,2.100,2.150,4.20
142,2.235,64.7,2.110,2.110,2.157,4.22
143,2.252,64.9,2.120,2.120,2.163,4.24
144,2.267,65.0,2.140,2.140,2.167,4.28
145,2.284,65.1,2.150,2.150,2.170,4.30
146,2.300,65.2,2.170,2.170,2.173,4.34
147,2.315,65.3,2.180,2.180,2.177,4.36
148,2.331,65.5,2.200,2.200,2.183,4.40
149,2.347,65.6,2.210,2.210,2.187,4.42
150,2.363,65.8,2.230,2.230,2.193,4.46
151,2.379,65.8,2.240,2.240,2.193,4.48
152,2.395,65.8,2.250,2.250,2.193,4.50
153,2.410,65.8,2.270,2.270,2.193,4.54
154,2.427,65.8,2.280,2.280,2.193,4.56
155,2.443,65.8,2.300,2.300,2.193,4.60
156,2.459,65.8,2.310,2.310,2.193,4.62
157,2.476,65.7,2.330,2.330,2.190,4.66
158,2.492,65.5,2.340,2.340,2.183,4.68
159,2.507,65.2,2.360,2.360,2.173,4.72
160,2.524,65.0,2.370,2.370,2.167,4.74
161,2.539,64.8,2.380,2.380,2.160,4.76
162,2.555,64.3,2.400,2.400,2.143,4.80
163,2.572,63.7,2.410,2.410,2.123,4.82
164,2.588,61.7,2.430,2.430,2.057,4.86
165,2.603,48.9,2.440,2.440,1.630,4.88
166,2.619,35.5,2.460,2.460,1.183,4.92
167,2.637,26.6,2.470,2.470,0.887,4.94
