일련번호,시간,하중,변위,테이블,강도,변형율
,[sec],[kgf],[mm],[mm],[kgf/mm²],[%]
1,0.000,0.0,0.000,0.000,0.000,0.00
2,0.000,5.8,0.000,0.060,0.193,0.00
3,0.011,7.1,0.080,0.080,0.237,0.16
4,0.027,8.3,0.090,0.090,0.277,0.18
5,0.043,9.6,0.110,0.110,0.320,0.22
6,0.059,10.6,0.120,0.120,0.353,0.24
7,0.075,11.7,0.140,0.140,0.390,0.28
8,0.091,13.2,0.150,0.150,0.440,0.30
9,0.107,14.4,0.170,0.170,0.480,0.34
10,0.123,15.6,0.180,0.180,0.520,0.36
11,0.139,16.7,0.200,0.200,0.557,0.40
12,0.155,17.6,0.210,0.210,0.587,0.42
13,0.171,18.3,0.230,0.230,0.610,0.46
14,0.187,18.9,0.240,0.240,0.630,0.48
15,0.203,19.3,0.260,0.260,0.643,0.52
16,0.219,19.6,0.270,0.270,0.653,0.54
17,0.235,20.0,0.290,0.290,0.667,0.58
18,0.251,20.1,0.300,0.300,0.670,0.60
19,0.267,20.2,0.320,0.320,0.673,0.64
20,0.283,20.2,0.330,0.330,0.673,0.66
21,0.299,20.6,0.340,0.340,0.687,0.68
22,0.315,21.0,0.360,0.360,0.700,0.72
23,0.331,21.3,0.370,0.370,0.710,0.74
24,0.347,21.6,0.390,0.390,0.720,0.78
25,0.364,21.9,0.400,0.400,0.730,0.80
26,0.379,22.3,0.420,0.420,0.743,0.84
27,0.395,22.9,0.430,0.430,0.763,0.86
28,0.411,23.6,0.450,0.450,0.787,0.90
29,0.427,24.4,0.460,0.460,0.813,0.92
30,0.443,25.1,0.480,0.480,0.837,0.96
31,0.459,25.9,0.490,0.490,0.863,0.98
32,0.475,26.6,0.510,0.510,0.887,1.02
33,0.491,27.0,0.520,0.520,0.900,1.04
34,0.507,27.8,0.540,0.540,0.927,1.08
35,0.523,28.0,0.550,0.550,0.933,1.10
36,0.539,27.3,0.570,0.570,0.910,1.14
37,0.555,25.6,0.580,0.580,0.853,1.16
38,0.571,24.2,0.590,0.590,0.807,1.18
39,0.587,23.3,0.610,0.610,0.777,1.22
40,0.603,22.5,0.620,0.620,0.750,1.24
41,0.619,22.1,0.640,0.640,0.737,1.28
42,0.635,21.8,0.650,0.650,0.727,1.30
43,0.651,21.5,0.670,0.670,0.717,1.34
44,0.668,21.3,0.680,0.680,0.710,1.36
45,0.684,21.3,0.700,0.700,0.710,1.40
46,0.699,21.3,0.710,0.710,0.710,1.42
47,0.716,21.7,0.730,0.730,0.723,1.46
48,0.731,22.0,0.740,0.740,0.733,1.48
49,0.747,22.4,0.760,0.760,0.747,1.52
50,0.763,22.8,0.770,0.770,0.760,1.54
51,0.780,23.3,0.780,0.780,0.777,1.56
52,0.795,24.1,0.800,0.800,0.803,1.60
53,0.811,25.0,0.810,0.810,0.833,1.62
54,0.827,26.0,0.830,0.830,0.867,1.66
55,0.843,27.0,0.840,0.840,0.900,1.68
56,0.859,28.0,0.860,0.860,0.933,1.72
57,0.875,29.0,0.870,0.870,0.967,1.74
58,0.891,29.8,0.890,0.890,0.993,1.78
59,0.907,30.4,0.900,0.900,1.013,1.80
60,0.923,31.0,0.920,0.920,1.033,1.84
61,0.939,31.9,0.930,0.930,1.063,1.86
62,0.955,32.6,0.950,0.950,1.087,1.90
63,0.971,33.2,0.960,0.960,1.107,1.92
64,0.987,33.7,0.970,0.970,1.123,1.94
65,1.003,34.1,0.990,0.990,1.137,1.98
66,1.019,34.3,1.000,1.000,1.143,2.00
67,1.035,34.7,1.020,1.020,1.157,2.04
68,1.051,35.0,1.030,1.030,1.167,2.06
69,1.067,35.3,1.050,1.050,1.177,2.10
70,1.084,35.6,1.060,1.060,1.187,2.12
71,1.100,36.0,1.080,1.080,1.200,2.16
72,1.116,36.2,1.090,1.090,1.207,2.18
73,1.132,36.7,1.110,1.110,1.223,2.22
74,1.148,37.0,1.120,1.120,1.233,2.24
75,1.164,37.3,1.140,1.140,1.243,2.28
76,1.179,37.5,1.150,1.150,1.250,2.30
77,1.195,37.9,1.160,1.160,1.263,2.32
78,1.211,38.2,1.180,1.180,1.273,2.36
79,1.227,38.5,1.190,1.190,1.283,2.38
80,1.243,38.9,1.210,1.210,1.297,2.42
81,1.259,39.2,1.220,1.220,1.307,2.44
82,1.275,39.6,1.240,1.240,1.320,2.48
83,1.291,39.9,1.250,1.250,1.330,2.50
84,1.308,40.3,1.270,1.270,1.343,2.54
85,1.323,40.5,1.280,1.280,1.350,2.56
86,1.339,40.7,1.300,1.300,1.357,2.60
87,1.355,41.2,1.310,1.310,1.373,2.62
88,1.371,41.6,1.330,1.330,1.387,2.66
89,1.387,41.9,1.340,1.340,1.397,2.68
90,1.403,42.2,1.350,1.350,1.407,2.70
91,1.420,42.6,1.370,1.370,1.420,2.74
92,1.436,42.9,1.380,1.380,1.430,2.76
93,1.451,43.3,1.400,1.400,1.443,2.80
94,1.468,43.7,1.410,1.410,1.457,2.82
95,1.483,43.9,1.430,1.430,1.463,2.86
96,1.500,44.3,1.440,1.440,1.477,2.88
97,1.515,44.6,1.460,1.460,1.487,2.92
98,1.532,45.0,1.470,1.470,1.500,2.94
99,1.548,45.1,1.490,1.490,1.503,2.98
100,1.563,45.4,1.500,1.500,1.513,3.00
101,1.579,45.9,1.510,1.510,1.530,3.02
102,1.596,46.1,1.530,1.530,1.537,3.06
103,1.612,46.5,1.540,1.540,1.550,3.08
104,1.627,46.9,1.560,1.560,1.563,3.12
105,1.643,47.3,1.570,1.570,1.577,3.14
106,1.660,47.5,1.590,1.590,1.583,3.18
107,1.676,47.9,1.600,1.600,1.597,3.20
108,1.691,48.2,1.620,1.620,1.607,3.24
109,1.708,48.6,1.630,1.630,1.620,3.26
110,1.723,48.8,1.650,1.650,1.627,3.30
111,1.739,49.2,1.660,1.660,1.640,3.32
112,1.755,49.4,1.670,1.670,1.647,3.34
113,1.771,50.0,1.690,1.690,1.667,3.38
114,1.788,50.2,1.700,1.700,1.673,3.40
115,1.803,50.6,1.720,1.720,1.687,3.44
116,1.820,50.8,1.730,1.730,1.693,3.46
117,1.836,51.2,1.750,1.750,1.707,3.50
118,1.852,51.5,1.760,1.760,1.717,3.52
119,1.868,51.8,1.780,1.780,1.727,3.56
120,1.884,52.0,1.790,1.790,1.733,3.58
121,1.900,52.4,1.810,1.810,1.747,3.62
122,1.916,52.7,1.820,1.820,1.757,3.64
123,1.932,53.0,1.830,1.830,1.767,3.66
124,1.948,53.3,1.850,1.850,1.777,3.70
125,1.964,53.5,1.860,1.860,1.783,3.72
126,1.979,53.8,1.880,1.880,1.793,3.76
127,1.996,54.2,1.890,1.890,1.807,3.78
128,2.011,54.5,1.910,1.910,1.817,3.82
129,2.027,54.9,1.920,1.920,1.830,3.84
130,2.043,55.2,1.940,1.940,1.840,3.88
131,2.059,55.6,1.950,1.950,1.853,3.90
132,2.076,55.9,1.960,1.960,1.863,3.92
133,2.091,56.3,1.980,1.980,1.877,3.96
134,2.107,56.5,1.990,1.990,1.883,3.98
135,2.124,56.9,2.010,2.010,1.897,4.02
136,2.140,57.2,2.020,2.020,1.907,4.04
137,2.156,57.4,2.040,2.040,1.913,4.08
138,2.171,57.6,2.050,2.050,1.920,4.10
139,2.188,57.8,2.070,2.070,1.927,4.14
140,2.204,58.2,2.080,2.080,1.940,4.16
141,2.220,58.6,2.100,2.100,1.953,4.20
142,2.235,58.8,2.110,2.110,1.960,4.22
143,2.251,59.2,2.120,2.120,1.973,4.24
144,2.268,59.5,2.140,2.140,1.983,4.28
145,2.284,59.9,2.150,2.150,1.997,4.30
146,2.300,60.1,2.170,2.170,2.003,4.34
147,2.315,60.4,2.180,2.180,2.013,4.36
148,2.332,60.6,2.200,2.200,2.020,4.40
149,2.348,60.9,2.210,2.210,2.030,4.42
150,2.363,61.2,2.230,2.230,2.040,4.46
151,2.380,61.4,2.240,2.240,2.047,4.48
152,2.395,61.8,2.250,2.250,2.060,4.50
153,2.412,61.9,2.270,2.270,2.063,4.54
154,2.428,62.1,2.280,2.280,2.070,4.56
155,2.444,62.2,2.300,2.300,2.073,4.60
156,2.460,62.3,2.310,2.310,2.077,4.62
157,2.476,62.4,2.330,2.330,2.080,4.66
158,2.491,62.4,2.340,2.340,2.080,4.68
159,2.508,62.4,2.360,2.360,2.080,4.72
160,2.524,62.4,2.370,2.370,2.080,4.74
161,2.540,62.4,2.380,2.380,2.080,4.76
162,2.556,62.2,2.400,2.400,2.073,4.80
163,2.571,62.1,2.410,2.410,2.070,4.82
164,2.588,61.9,2.430,2.430,2.063,4.86
165,2.603,61.4,2.440,2.440,2.047,4.88
166,2.620,61.4,2.460,2.460,2.047,4.92
167,2.635,61.2,2.470,2.470,2.040,4.94
168,2.652,60.9,2.490,2.490,2.030,4.98
169,2.668,60.7,2.500,2.500,2.023,5.00
170,2.684,60.4,2.510,2.510,2.013,5.02
171,2.700,60.2,2.530,2.530,2.007,5.06
172,2.715,59.8,2.540,2.540,1.993,5.08
173,2.732,59.6,2.560,2.560,1.987,5.12
174,2.747,59.2,2.570,2.570,1.973,5.14
175,2.764,58.8,2.590,2.590,1.960,5.18
176,2.779,58.5,2.600,2.600,1.950,5.20
177,2.796,58.1,2.620,2.620,1.937,5.24
178,2.812,57.7,2.630,2.630,1.923,5.26
179,2.828,57.0,2.640,2.640,1.900,5.28
180,2.844,53.3,2.660,2.660,1.777,5.32
181,2.859,38.9,2.670,2.670,1.297,5.34
182,2.877,27.0,2.690,2.690,0.900,5.38
