일련번호,시간,하중,변위,테이블,강도,변형율
,[sec],[kgf],[mm],[mm],[kgf/mm²],[%]
1,0.000,0.0,0.000,0.000,0.000,0.00
2,0.000,7.9,0.000,0.070,0.263,0.00
3,0.009,9.6,0.090,0.090,0.320,0.18
4,0.025,11.2,0.100,0.100,0.373,0.20
5,0.042,12.7,0.120,0.120,0.423,0.24
6,0.058,14.2,0.130,0.130,0.473,0.26
7,0.074,15.6,0.150,0.150,0.520,0.30
8,0.090,17.0,0.160,0.160,0.567,0.32
9,0.106,18.3,0.180,0.180,0.610,0.36
10,0.122,19.5,0.190,0.190,0.650,0.38
11,0.137,20.6,0.210,0.210,0.687,0.42
12,0.153,21.5,0.220,0.220,0.717,0.44
13,0.170,22.0,0.230,0.230,0.733,0.46
14,0.187,22.5,0.250,0.250,0.750,0.50
15,0.202,22.5,0.260,0.260,0.750,0.52
16,0.218,22.6,0.280,0.280,0.753,0.56
17,0.234,22.7,0.290,0.290,0.757,0.58
18,0.250,22.9,0.310,0.310,0.763,0.62
19,0.266,23.3,0.320,0.320,0.777,0.64
20,0.282,23.9,0.340,0.340,0.797,0.68
21,0.298,24.8,0.350,0.350,0.827,0.70
22,0.314,25.7,0.370,0.370,0.857,0.74
23,0.330,26.7,0.380,0.380,0.890,0.76
24,0.346,27.7,0.400,0.400,0.923,0.80
25,0.362,28.6,0.410,0.410,0.953,0.82
26,0.378,29.0,0.430,0.430,0.967,0.86
27,0.393,28.7,0.440,0.440,0.957,0.88
28,0.410,27.2,0.460,0.460,0.907,0.92
29,0.426,25.9,0.470,0.470,0.863,0.94
30,0.442,25.1,0.480,0.480,0.837,0.96
31,0.458,24.5,0.500,0.500,0.817,1.00
32,0.474,24.1,0.510,0.510,0.803,1.02
33,0.490,23.8,0.530,0.530,0.793,1.06
34,0.506,23.6,0.540,0.540,0.787,1.08
35,0.522,23.5,0.560,0.560,0.783,1.12
36,0.538,23.4,0.570,0.570,0.780,1.14
37,0.553,23.4,0.590,0.590,0.780,1.18
38,0.569,23.6,0.600,0.600,0.787,1.20
39,0.586,23.7,0.620,0.620,0.790,1.24
40,0.601,23.8,0.630,0.630,0.793,1.26
41,0.617,24.2,0.650,0.650,0.807,1.30
42,0.633,25.0,0.660,0.660,0.833,1.32
43,0.649,26.1,0.670,0.670,0.870,1.34
44,0.666,27.2,0.690,0.690,0.907,1.38
45,0.682,28.4,0.700,0.700,0.947,1.40
46,0.697,29.6,0.720,0.720,0.987,1.44
47,0.714,30.8,0.730,0.730,1.027,1.46
48,0.730,32.0,0.750,0.750,1.067,1.50
49,0.746,33.1,0.760,0.760,1.103,1.52
50,0.762,34.0,0.780,0.780,1.133,1.56
51,0.778,34.9,0.790,0.790,1.163,1.58
52,0.794,35.6,0.810,0.810,1.187,1.62
53,0.810,36.0,0.820,0.820,1.200,1.64
54,0.826,36.3,0.840,0.840,1.210,1.68
55,0.842,36.9,0.850,0.850,1.230,1.70
56,0.858,37.5,0.870,0.870,1.250,1.74
57,0.874,38.0,0.880,0.880,1.267,1.76
58,0.890,38.4,0.890,0.890,1.280,1.78
59,0.906,38.8,0.910,0.910,1.293,1.82
60,0.922,39.2,0.920,0.920,1.307,1.84
61,0.938,39.6,0.940,0.940,1.320,1.88
62,0.954,40.0,0.950,0.950,1.333,1.90
63,0.970,40.4,0.970,0.970,1.347,1.94
64,0.986,40.8,0.980,0.980,1.360,1.96
65,1.001,41.2,1.000,1.000,1.373,2.00
66,1.018,41.6,1.010,1.010,1.387,2.02
67,1.035,41.9,1.030,1.030,1.397,2.06
68,1.050,42.2,1.040,1.040,1.407,2.08
69,1.066,42.7,1.050,1.050,1.423,2.10
70,1.082,43.2,1.070,1.070,1.440,2.14
71,1.098,43.7,1.080,1.080,1.457,2.16
72,1.115,44.2,1.100,1.100,1.473,2.20
73,1.130,44.6,1.110,1.110,1.487,2.22
74,1.147,45.1,1.130,1.130,1.503,2.26
75,1.162,45.5,1.140,1.140,1.517,2.28
76,1.178,45.9,1.160,1.160,1.530,2.32
77,1.195,46.3,1.170,1.170,1.543,2.34
78,1.210,46.8,1.190,1.190,1.560,2.38
79,1.226,47.1,1.200,1.200,1.570,2.40
80,1.242,47.4,1.220,1.220,1.580,2.44
81,1.258,47.9,1.230,1.230,1.597,2.46
82,1.274,48.4,1.240,1.240,1.613,2.48
83,1.290,48.9,1.260,1.260,1.630,2.52
84,1.306,49.3,1.270,1.270,1.643,2.54
85,1.323,49.8,1.290,1.290,1.660,2.58
86,1.338,50.1,1.300,1.300,1.670,2.60
87,1.355,50.6,1.320,1.320,1.687,2.64
88,1.371,50.9,1.330,1.330,1.697,2.66
89,1.386,51.4,1.350,1.350,1.713,2.70
90,1.402,51.8,1.360,1.360,1.727,2.72
91,1.419,52.2,1.380,1.380,1.740,2.76
92,1.434,52.6,1.390,1.390,1.753,2.78
93,1.450,52.9,1.400,1.400,1.763,2.80
94,1.466,53.4,1.420,1.420,1.780,2.84
95,1.482,53.8,1.430,1.430,1.793,2.86
96,1.498,54.2,1.450,1.450,1.807,2.90
97,1.514,54.5,1.460,1.460,1.817,2.92
98,1.530,54.8,1.480,1.480,1.827,2.96
99,1.546,55.1,1.490,1.490,1.837,2.98
100,1.562,55.5,1.510,1.510,1.850,3.02
101,1.579,55.9,1.520,1.520,1.863,3.04
102,1.595,56.3,1.540,1.540,1.877,3.08
103,1.611,56.6,1.550,1.550,1.887,3.10
104,1.627,57.1,1.560,1.560,1.903,3.12
105,1.642,57.5,1.580,1.580,1.917,3.16
106,1.658,57.9,1.590,1.590,1.930,3.18
107,1.674,58.1,1.610,1.610,1.937,3.22
108,1.690,58.8,1.620,1.620,1.960,3.24
109,1.706,59.2,1.640,1.640,1.973,3.28
110,1.722,59.6,1.650,1.650,1.987,3.30
111,1.738,60.0,1.670,1.670,2.000,3.34
112,1.754,60.5,1.680,1.680,2.017,3.36
113,1.770,60.9,1.700,1.700,2.030,3.40
114,1.786,61.3,1.710,1.710,2.043,3.42
115,1.803,61.8,1.720,1.720,2.060,3.44
116,1.818,62.3,1.740,1.740,2.077,3.48
117,1.834,62.7,1.750,1.750,2.090,3.50
118,1.850,63.2,1.770,1.770,2.107,3.54
119,1.866,63.6,1.780,1.780,2.120,3.56
120,1.883,63.9,1.800,1.800,2.130,3.60
121,1.898,64.3,1.810,1.810,2.143,3.62
122,1.915,64.8,1.830,1.830,2.160,3.66
123,1.930,65.1,1.840,1.840,2.170,3.68
124,1.947,65.6,1.860,1.860,2.187,3.72
125,1.963,66.0,1.870,1.870,2.200,3.74
126,1.979,66.4,1.880,1.880,2.213,3.76
127,1.995,66.8,1.900,1.900,2.227,3.80
128,2.011,67.2,1.910,1.910,2.240,3.82
129,2.026,67.6,1.930,1.930,2.253,3.86
130,2.043,68.0,1.940,1.940,2.267,3.88
131,2.059,68.4,1.960,1.960,2.280,3.92
132,2.075,68.8,1.970,1.970,2.293,3.94
133,2.090,69.3,1.990,1.990,2.310,3.98
134,2.107,69.4,2.000,2.000,2.313,4.00
135,2.122,69.9,2.010,2.010,2.330,4.02
136,2.139,70.5,2.030,2.030,2.350,4.06
137,2.154,71.0,2.040,2.040,2.367,4.08
138,2.170,71.5,2.060,2.060,2.383,4.12
139,2.186,72.0,2.070,2.070,2.400,4.14
140,2.202,72.4,2.090,2.090,2.413,4.18
141,2.218,72.9,2.100,2.100,2.430,4.20
142,2.234,73.3,2.120,2.120,2.443,4.24
143,2.251,73.8,2.130,2.130,2.460,4.26
144,2.266,74.2,2.140,2.140,2.473,4.28
145,2.282,74.6,2.160,2.160,2.487,4.32
146,2.298,75.2,2.170,2.170,2.507,4.34
147,2.314,75.4,2.190,2.190,2.513,4.38
148,2.331,75.7,2.200,2.200,2.523,4.40
149,2.347,76.3,2.220,2.220,2.543,4.44
150,2.362,76.8,2.230,2.230,2.560,4.46
151,2.378,77.2,2.250,2.250,2.573,4.50
152,2.394,77.6,2.260,2.260,2.587,4.52
153,2.411,78.0,2.280,2.280,2.600,4.56
154,2.427,78.4,2.290,2.290,2.613,4.58
155,2.442,78.8,2.300,2.300,2.627,4.60
156,2.458,79.0,2.320,2.320,2.633,4.64
157,2.475,79.4,2.330,2.330,2.647,4.66
158,2.491,79.7,2.350,2.350,2.657,4.70
159,2.507,79.9,2.360,2.360,2.663,4.72
160,2.522,80.2,2.380,2.380,2.673,4.76
161,2.539,80.4,2.390,2.390,2.680,4.78
162,2.555,80.6,2.410,2.410,2.687,4.82
163,2.571,80.8,2.420,2.420,2.693,4.84
164,2.587,81.0,2.430,2.430,2.700,4.86
165,2.603,81.2,2.450,2.450,2.707,4.90
166,2.619,81.4,2.460,2.460,2.713,4.92
167,2.635,81.5,2.480,2.480,2.717,4.96
168,2.651,81.6,2.490,2.490,2.720,4.98
169,2.667,81.6,2.510,2.510,2.720,5.02
170,2.683,81.6,2.520,2.520,2.720,5.04
171,2.699,81.5,2.540,2.540,2.717,5.08
172,2.714,75.2,2.550,2.550,2.507,5.10
173,2.730,54.3,2.560,2.560,1.810,5.12
174,2.747,41.6,2.580,2.580,1.387,5.16
175,2.764,29.4,2.590,2.590,0.980,5.18
