일련번호,시간,하중,변위,테이블,강도,변형율
,[sec],[kgf],[mm],[mm],[kgf/mm²],[%]
1,0.000,0.0,0.000,0.000,0.000,0.00
2,0.000,6.4,0.000,0.060,0.213,0.00
3,0.010,7.8,0.080,0.080,0.260,0.16
4,0.026,9.2,0.090,0.090,0.307,0.18
5,0.042,10.5,0.110,0.110,0.350,0.22
6,0.058,12.2,0.120,0.120,0.407,0.24
7,0.074,13.7,0.140,0.140,0.457,0.28
8,0.090,15.2,0.150,0.150,0.507,0.30
9,0.106,16.6,0.170,0.170,0.553,0.34
10,0.122,18.0,0.180,0.180,0.600,0.36
11,0.138,19.2,0.200,0.200,0.640,0.40
12,0.154,20.3,0.210,0.210,0.677,0.42
13,0.170,21.3,0.230,0.230,0.710,0.46
14,0.186,22.1,0.240,0.240,0.737,0.48
15,0.202,22.6,0.260,0.260,0.753,0.52
16,0.218,22.9,0.270,0.270,0.763,0.54
17,0.234,23.0,0.290,0.290,0.767,0.58
18,0.251,23.0,0.300,0.300,0.767,0.60
19,0.267,22.9,0.320,0.320,0.763,0.64
20,0.283,23.0,0.330,0.330,0.767,0.66
21,0.298,23.2,0.340,0.340,0.773,0.68
22,0.314,23.5,0.360,0.360,0.783,0.72
23,0.330,24.1,0.370,0.370,0.803,0.74
24,0.346,24.9,0.390,0.390,0.830,0.78
25,0.362,25.7,0.400,0.400,0.857,0.80
26,0.378,26.4,0.420,0.420,0.880,0.84
27,0.394,27.1,0.430,0.430,0.903,0.86
28,0.410,27.6,0.450,0.450,0.920,0.90
29,0.426,28.2,0.460,0.460,0.940,0.92
30,0.442,28.5,0.480,0.480,0.950,0.96
31,0.458,28.8,0.490,0.490,0.960,0.98
32,0.474,29.2,0.510,0.510,0.973,1.02
33,0.490,29.8,0.520,0.520,0.993,1.04
34,0.506,30.2,0.540,0.540,1.007,1.08
35,0.522,30.7,0.550,0.550,1.023,1.10
36,0.539,31.0,0.560,0.560,1.033,1.12
37,0.555,30.6,0.580,0.580,1.020,1.16
38,0.570,29.0,0.590,0.590,0.967,1.18
39,0.586,27.3,0.610,0.610,0.910,1.22
40,0.603,26.2,0.620,0.620,0.873,1.24
41,0.619,25.4,0.640,0.640,0.847,1.28
42,0.635,24.8,0.650,0.650,0.827,1.30
43,0.651,24.4,0.670,0.670,0.813,1.34
44,0.667,24.1,0.680,0.680,0.803,1.36
45,0.683,24.1,0.700,0.700,0.803,1.40
46,0.698,24.1,0.710,0.710,0.803,1.42
47,0.715,24.1,0.730,0.730,0.803,1.46
48,0.730,24.3,0.740,0.740,0.810,1.48
49,0.746,24.5,0.760,0.760,0.817,1.52
50,0.762,24.7,0.770,0.770,0.823,1.54
51,0.778,25.2,0.780,0.780,0.840,1.56
52,0.794,25.7,0.800,0.800,0.857,1.60
53,0.810,26.3,0.810,0.810,0.877,1.62
54,0.826,27.2,0.830,0.830,0.907,1.66
55,0.842,28.1,0.840,0.840,0.937,1.68
56,0.858,29.1,0.860,0.860,0.970,1.72
57,0.874,30.0,0.870,0.870,1.000,1.74
58,0.890,30.7,0.890,0.890,1.023,1.78
59,0.906,31.8,0.900,0.900,1.060,1.80
60,0.922,32.7,0.920,0.920,1.090,1.84
61,0.937,33.5,0.930,0.930,1.117,1.86
62,0.954,34.2,0.950,0.950,1.140,1.90
63,0.969,34.7,0.960,0.960,1.157,1.92
64,0.986,35.3,0.970,0.970,1.177,1.94
65,1.002,35.8,0.990,0.990,1.193,1.98
66,1.019,36.1,1.000,1.000,1.203,2.00
67,1.034,36.5,1.020,1.020,1.217,2.04
68,1.051,36.8,1.030,1.030,1.227,2.06
69,1.066,37.2,1.050,1.050,1.240,2.10
70,1.082,37.5,1.060,1.060,1.250,2.12
71,1.098,37.6,1.080,1.080,1.253,2.16
72,1.115,37.9,1.090,1.090,1.263,2.18
73,1.130,38.3,1.110,1.110,1.277,2.22
74,1.146,38.7,1.120,1.120,1.290,2.24
75,1.162,39.1,1.140,1.140,1.303,2.28
76,1.178,39.5,1.150,1.150,1.317,2.30
77,1.195,39.9,1.160,1.160,1.330,2.32
78,1.211,40.1,1.180,1.180,1.337,2.36
79,1.226,40.5,1.190,1.190,1.350,2.38
80,1.242,40.8,1.210,1.210,1.360,2.42
81,1.258,41.2,1.220,1.220,1.373,2.44
82,1.274,41.4,1.240,1.240,1.380,2.48
83,1.290,41.7,1.250,1.250,1.390,2.50
84,1.306,41.9,1.270,1.270,1.397,2.54
85,1.323,42.4,1.280,1.280,1.413,2.56
86,1.338,42.6,1.300,1.300,1.420,2.60
87,1.354,42.9,1.310,1.310,1.430,2.62
88,1.370,43.2,1.320,1.320,1.440,2.64
89,1.387,43.5,1.340,1.340,1.450,2.68
90,1.403,43.8,1.350,1.350,1.460,2.70
91,1.419,44.2,1.370,1.370,1.473,2.74
92,1.434,44.5,1.380,1.380,1.483,2.76
93,1.451,44.9,1.400,1.400,1.497,2.80
94,1.467,45.1,1.410,1.410,1.503,2.82
95,1.483,45.5,1.430,1.430,1.517,2.86
96,1.498,45.8,1.440,1.440,1.527,2.88
97,1.514,46.1,1.460,1.460,1.537,2.92
98,1.530,46.3,1.470,1.470,1.543,2.94
99,1.546,46.7,1.490,1.490,1.557,2.98
100,1.562,47.1,1.500,1.500,1.570,3.00
101,1.578,47.5,1.510,1.510,1.583,3.02
102,1.594,47.9,1.530,1.530,1.597,3.06
103,1.610,48.3,1.540,1.540,1.610,3.08
104,1.626,48.7,1.560,1.560,1.623,3.12
105,1.642,49.0,1.570,1.570,1.633,3.14
106,1.658,49.4,1.590,1.590,1.647,3.18
107,1.674,49.6,1.600,1.600,1.653,3.20
108,1.690,49.9,1.620,1.620,1.663,3.24
109,1.706,50.2,1.630,1.630,1.673,3.26
110,1.723,50.5,1.650,1.650,1.683,3.30
111,1.739,50.6,1.660,1.660,1.687,3.32
112,1.754,50.9,1.670,1.670,1.697,3.34
113,1.771,51.2,1.690,1.690,1.707,3.38
114,1.787,51.6,1.700,1.700,1.720,3.40
115,1.803,51.9,1.720,1.720,1.730,3.44
116,1.818,52.3,1.730,1.730,1.743,3.46
117,1.835,52.6,1.750,1.750,1.753,3.50
118,1.851,53.0,1.760,1.760,1.767,3.52
119,1.867,53.4,1.780,1.780,1.780,3.56
120,1.882,53.7,1.790,1.790,1.790,3.58
121,1.899,54.1,1.810,1.810,1.803,3.62
122,1.915,54.4,1.820,1.820,1.813,3.64
123,1.931,54.8,1.830,1.830,1.827,3.66
124,1.947,55.1,1.850,1.850,1.837,3.70
125,1.963,55.5,1.860,1.860,1.850,3.72
126,1.979,55.9,1.880,1.880,1.863,3.76
127,1.994,56.2,1.890,1.890,1.873,3.78
128,2.011,56.5,1.910,1.910,1.883,3.82
129,2.027,57.0,1.920,1.920,1.900,3.84
130,2.043,57.3,1.940,1.940,1.910,3.88
131,2.059,57.6,1.950,1.950,1.920,3.90
132,2.075,58.0,1.960,1.960,1.933,3.92
133,2.091,58.4,1.980,1.980,1.947,3.96
134,2.106,58.8,1.990,1.990,1.960,3.98
135,2.122,59.2,2.010,2.010,1.973,4.02
136,2.138,59.6,2.020,2.020,1.987,4.04
137,2.154,59.9,2.040,2.040,1.997,4.08
138,2.171,60.5,2.050,2.050,2.017,4.10
139,2.187,60.8,2.070,2.070,2.027,4.14
140,2.202,61.2,2.080,2.080,2.040,4.16
141,2.219,61.6,2.090,2.090,2.053,4.18
142,2.234,62.0,2.110,2.110,2.067,4.22
143,2.250,62.3,2.120,2.120,2.077,4.24
144,2.267,62.8,2.140,2.140,2.093,4.28
145,2.282,63.2,2.150,2.150,2.107,4.30
146,2.298,63.5,2.170,2.170,2.117,4.34
147,2.314,63.9,2.180,2.180,2.130,4.36
148,2.331,64.3,2.200,2.200,2.143,4.40
149,2.347,64.6,2.210,2.210,2.153,4.42
150,2.362,64.9,2.230,2.230,2.163,4.46
151,2.379,65.1,2.240,2.240,2.170,4.48
152,2.395,65.6,2.250,2.250,2.187,4.50
153,2.411,66.1,2.270,2.270,2.203,4.54
154,2.427,66.4,2.280,2.280,2.213,4.56
155,2.443,66.9,2.300,2.300,2.230,4.60
156,2.459,67.2,2.310,2.310,2.240,4.62
157,2.475,67.6,2.330,2.330,2.253,4.66
158,2.491,68.0,2.340,2.340,2.267,4.68
159,2.507,68.4,2.360,2.360,2.280,4.72
160,2.523,68.6,2.370,2.370,2.287,4.74
161,2.538,69.0,2.380,2.380,2.300,4.76
162,2.554,69.4,2.400,2.400,2.313,4.80
163,2.571,69.8,2.410,2.410,2.327,4.82
164,2.587,70.1,2.430,2.430,2.337,4.86
165,2.603,70.4,2.440,2.440,2.347,4.88
166,2.619,70.8,2.460,2.460,2.360,4.92
167,2.635,71.2,2.470,2.470,2.373,4.94
168,2.651,71.5,2.490,2.490,2.383,4.98
169,2.667,71.9,2.500,2.500,2.397,5.00
170,2.683,72.2,2.510,2.510,2.407,5.02
171,2.699,72.5,2.530,2.530,2.417,5.06
172,2.715,72.7,2.540,2.540,2.423,5.08
173,2.731,72.9,2.560,2.560,2.430,5.12
174,2.747,73.1,2.570,2.570,2.437,5.14
175,2.763,73.2,2.590,2.590,2.440,5.18
176,2.779,73.2,2.600,2.600,2.440,5.20
177,2.795,73.4,2.620,2.620,2.447,5.24
178,2.811,70.0,2.630,2.630,2.333,5.26
179,2.827,52.3,2.640,2.640,1.743,5.28
180,2.843,36.8,2.660,2.660,1.227,5.32
181,2.860,26.4,2.670,2.670,0.880,5.34
