일련번호,시간,하중,변위,테이블,강도,변형율
,[sec],[kgf],[mm],[mm],[kgf/mm²],[%]
1,0.000,0.0,0.000,0.000,0.000,0.00
2,0.000,7.5,0.000,0.070,0.250,0.00
3,0.010,8.8,0.080,0.080,0.293,0.16
4,0.026,10.6,0.100,0.100,0.353,0.20
5,0.043,12.3,0.110,0.110,0.410,0.22
6,0.058,13.9,0.130,0.130,0.463,0.26
7,0.075,15.3,0.140,0.140,0.510,0.28
8,0.090,16.7,0.160,0.160,0.557,0.32
9,0.105,18.0,0.170,0.170,0.600,0.34
10,0.122,19.2,0.190,0.190,0.640,0.38
11,0.137,20.2,0.200,0.200,0.673,0.40
12,0.154,21.2,0.220,0.220,0.707,0.44
13,0.170,22.1,0.230,0.230,0.737,0.46
14,0.186,22.8,0.250,0.250,0.760,0.50
15,0.202,23.4,0.260,0.260,0.780,0.52
16,0.218,23.8,0.270,0.270,0.793,0.54
17,0.234,24.7,0.290,0.290,0.823,0.58
18,0.250,25.6,0.300,0.300,0.853,0.60
19,0.266,26.4,0.320,0.320,0.880,0.64
20,0.282,27.0,0.330,0.330,0.900,0.66
21,0.297,27.2,0.350,0.350,0.907,0.70
22,0.314,27.6,0.360,0.360,0.920,0.72
23,0.330,28.1,0.380,0.380,0.937,0.76
24,0.346,28.5,0.390,0.390,0.950,0.78
25,0.363,28.5,0.410,0.410,0.950,0.82
26,0.378,27.8,0.420,0.420,0.927,0.84
27,0.395,27.0,0.440,0.440,0.900,0.88
28,0.410,26.4,0.450,0.450,0.880,0.90
29,0.426,26.1,0.470,0.470,0.870,0.94
30,0.442,25.5,0.480,0.480,0.850,0.96
31,0.458,25.4,0.490,0.490,0.847,0.98
32,0.475,25.3,0.510,0.510,0.843,1.02
33,0.490,25.4,0.520,0.520,0.847,1.04
34,0.506,25.4,0.540,0.540,0.847,1.08
35,0.522,25.4,0.550,0.550,0.847,1.10
36,0.538,25.2,0.570,0.570,0.840,1.14
37,0.554,25.2,0.580,0.580,0.840,1.16
38,0.570,25.2,0.600,0.600,0.840,1.20
39,0.586,25.3,0.610,0.610,0.843,1.22
40,0.602,25.6,0.630,0.630,0.853,1.26
41,0.618,26.0,0.640,0.640,0.867,1.28
42,0.634,26.5,0.660,0.660,0.883,1.32
43,0.650,26.9,0.670,0.670,0.897,1.34
44,0.667,28.1,0.690,0.690,0.937,1.38
45,0.682,29.4,0.700,0.700,0.980,1.40
46,0.698,30.7,0.710,0.710,1.023,1.42
47,0.714,32.1,0.730,0.730,1.070,1.46
48,0.731,33.4,0.740,0.740,1.113,1.48
49,0.746,34.8,0.760,0.760,1.160,1.52
50,0.762,36.1,0.770,0.770,1.203,1.54
51,0.779,37.4,0.790,0.790,1.247,1.58
52,0.795,38.5,0.800,0.800,1.283,1.60
53,0.810,39.4,0.820,0.820,1.313,1.64
54,0.826,40.2,0.830,0.830,1.340,1.66
55,0.842,40.8,0.850,0.850,1.360,1.70
56,0.858,41.1,0.860,0.860,1.370,1.72
57,0.874,41.8,0.880,0.880,1.393,1.76
58,0.890,42.4,0.890,0.890,1.413,1.78
59,0.906,43.1,0.910,0.910,1.437,1.82
60,0.922,43.6,0.920,0.920,1.453,1.84
61,0.938,44.1,0.930,0.930,1.470,1.86
62,0.954,44.7,0.950,0.950,1.490,1.90
63,0.971,45.2,0.960,0.960,1.507,1.92
64,0.986,45.6,0.980,0.980,1.520,1.96
65,1.002,46.2,0.990,0.990,1.540,1.98
66,1.018,46.6,1.010,1.010,1.553,2.02
67,1.034,47.1,1.020,1.020,1.570,2.04
68,1.050,47.6,1.040,1.040,1.587,2.08
69,1.066,48.0,1.050,1.050,1.600,2.10
70,1.083,48.8,1.070,1.070,1.627,2.14
71,1.099,49.3,1.080,1.080,1.643,2.16
72,1.114,49.8,1.100,1.100,1.660,2.20
73,1.130,50.3,1.110,1.110,1.677,2.22
74,1.146,50.8,1.120,1.120,1.693,2.24
75,1.162,51.3,1.140,1.140,1.710,2.28
76,1.178,51.8,1.150,1.150,1.727,2.30
77,1.194,52.4,1.170,1.170,1.747,2.34
78,1.211,52.9,1.180,1.180,1.763,2.36
79,1.227,53.4,1.200,1.200,1.780,2.40
80,1.242,53.9,1.210,1.210,1.797,2.42
81,1.258,54.4,1.230,1.230,1.813,2.46
82,1.274,54.9,1.240,1.240,1.830,2.48
83,1.290,55.3,1.260,1.260,1.843,2.52
84,1.306,55.9,1.270,1.270,1.863,2.54
85,1.323,56.4,1.280,1.280,1.880,2.56
86,1.338,56.9,1.300,1.300,1.897,2.60
87,1.354,57.4,1.310,1.310,1.913,2.62
88,1.370,58.0,1.330,1.330,1.933,2.66
89,1.386,58.5,1.340,1.340,1.950,2.68
90,1.403,59.0,1.360,1.360,1.967,2.72
91,1.419,59.5,1.370,1.370,1.983,2.74
92,1.434,60.0,1.390,1.390,2.000,2.78
93,1.450,60.5,1.400,1.400,2.017,2.80
94,1.466,61.0,1.420,1.420,2.033,2.84
95,1.482,61.5,1.430,1.430,2.050,2.86
96,1.498,61.6,1.440,1.440,2.053,2.88
97,1.515,62.2,1.460,1.460,2.073,2.92
98,1.530,62.8,1.470,1.470,2.093,2.94
99,1.546,63.3,1.490,1.490,2.110,2.98
100,1.562,63.8,1.500,1.500,2.127,3.00
101,1.578,64.3,1.520,1.520,2.143,3.04
102,1.594,64.8,1.530,1.530,2.160,3.06
103,1.611,65.2,1.550,1.550,2.173,3.10
104,1.627,65.7,1.560,1.560,2.190,3.12
105,1.642,66.1,1.580,1.580,2.203,3.16
106,1.658,66.6,1.590,1.590,2.220,3.18
107,1.674,67.0,1.610,1.610,2.233,3.22
108,1.690,67.4,1.620,1.620,2.247,3.24
109,1.706,67.7,1.630,1.630,2.257,3.26
110,1.723,67.9,1.650,1.650,2.263,3.30
111,1.739,68.5,1.660,1.660,2.283,3.32
112,1.754,69.0,1.680,1.680,2.300,3.36
113,1.770,69.5,1.690,1.690,2.317,3.38
114,1.787,70.0,1.710,1.710,2.333,3.42
115,1.802,70.4,1.720,1.720,2.347,3.44
116,1.819,70.9,1.740,1.740,2.363,3.48
117,1.834,71.4,1.750,1.750,2.380,3.50
118,1.851,71.9,1.760,1.760,2.397,3.52
119,1.866,72.4,1.780,1.780,2.413,3.56
120,1.883,72.9,1.790,1.790,2.430,3.58
121,1.899,73.4,1.810,1.810,2.447,3.62
122,1.915,73.8,1.820,1.820,2.460,3.64
123,1.930,74.0,1.840,1.840,2.467,3.68
124,1.946,74.5,1.850,1.850,2.483,3.70
125,1.962,75.1,1.870,1.870,2.503,3.74
126,1.979,75.6,1.880,1.880,2.520,3.76
127,1.994,76.0,1.900,1.900,2.533,3.80
128,2.011,76.6,1.910,1.910,2.553,3.82
129,2.026,77.1,1.920,1.920,2.570,3.84
130,2.042,77.5,1.940,1.940,2.583,3.88
131,2.059,78.0,1.950,1.950,2.600,3.90
132,2.074,78.5,1.970,1.970,2.617,3.94
133,2.091,78.9,1.980,1.980,2.630,3.96
134,2.107,79.3,2.000,2.000,2.643,4.00
135,2.122,79.6,2.010,2.010,2.653,4.02
136,2.139,80.0,2.030,2.030,2.667,4.06
137,2.154,80.6,2.040,2.040,2.687,4.08
138,2.170,81.0,2.050,2.050,2.700,4.10
139,2.186,81.4,2.070,2.070,2.713,4.14
140,2.203,81.7,2.080,2.080,2.723,4.16
141,2.219,82.1,2.100,2.100,2.737,4.20
142,2.235,82.4,2.110,2.110,2.747,4.22
143,2.251,82.7,2.130,2.130,2.757,4.26
144,2.267,83.0,2.140,2.140,2.767,4.28
145,2.282,83.3,2.160,2.160,2.777,4.32
146,2.299,83.5,2.170,2.170,2.783,4.34
147,2.314,83.7,2.190,2.190,2.790,4.38
148,2.331,83.8,2.200,2.200,2.793,4.40
149,2.347,83.8,2.210,2.210,2.793,4.42
150,2.363,83.9,2.230,2.230,2.797,4.46
151,2.378,83.9,2.240,2.240,2.797,4.48
152,2.394,83.5,2.260,2.260,2.783,4.52
153,2.411,79.9,2.270,2.270,2.663,4.54
154,2.427,60.2,2.290,2.290,2.007,4.58
155,2.442,42.5,2.300,2.300,1.417,4.60
156,2.460,30.6,2.320,2.320,1.020,4.64
