일련번호,시간,하중,변위,테이블,강도,변형율
,[sec],[kgf],[mm],[mm],[kgf/mm²],[%]
1,0.000,0.0,0.000,0.000,0.000,0.00
2,0.000,7.0,0.000,0.070,0.233,0.00
3,0.010,8.6,0.080,0.080,0.287,0.16
4,0.026,9.7,0.100,0.100,0.323,0.20
5,0.042,11.5,0.110,0.110,0.383,0.22
6,0.058,13.1,0.130,0.130,0.437,0.26
7,0.074,14.6,0.140,0.140,0.487,0.28
8,0.090,16.1,0.160,0.160,0.537,0.32
9,0.106,17.5,0.170,0.170,0.583,0.34
10,0.122,18.9,0.190,0.190,0.630,0.38
11,0.138,20.2,0.200,0.200,0.673,0.40
12,0.154,21.4,0.220,0.220,0.713,0.44
13,0.170,22.5,0.230,0.230,0.750,0.46
14,0.186,23.5,0.250,0.250,0.783,0.50
15,0.202,24.2,0.260,0.260,0.807,0.52
16,0.218,24.4,0.270,0.270,0.813,0.54
17,0.235,24.4,0.290,0.290,0.813,0.58
18,0.250,24.1,0.300,0.300,0.803,0.60
19,0.266,24.3,0.320,0.320,0.810,0.64
20,0.282,24.7,0.330,0.330,0.823,0.66
21,0.298,25.3,0.350,0.350,0.843,0.70
22,0.314,25.9,0.360,0.360,0.863,0.72
23,0.330,26.4,0.380,0.380,0.880,0.76
24,0.346,27.0,0.390,0.390,0.900,0.78
25,0.362,27.9,0.410,0.410,0.930,0.82
26,0.378,28.8,0.420,0.420,0.960,0.84
27,0.395,29.7,0.440,0.440,0.990,0.88
28,0.410,30.6,0.450,0.450,1.020,0.90
29,0.426,31.3,0.470,0.470,1.043,0.94
30,0.442,31.9,0.480,0.480,1.063,0.96
31,0.458,32.1,0.490,0.490,1.070,0.98
32,0.474,32.7,0.510,0.510,1.090,1.02
33,0.490,33.2,0.520,0.520,1.107,1.04
34,0.505,33.7,0.540,0.540,1.123,1.08
35,0.522,34.0,0.550,0.550,1.133,1.10
36,0.538,32.4,0.570,0.570,1.080,1.14
37,0.555,29.6,0.580,0.580,0.987,1.16
38,0.570,27.8,0.600,0.600,0.927,1.20
39,0.586,26.7,0.610,0.610,0.890,1.22
40,0.602,25.8,0.630,0.630,0.860,1.26
41,0.617,25.4,0.640,0.640,0.847,1.28
42,0.634,25.0,0.660,0.660,0.833,1.32
43,0.650,24.7,0.670,0.670,0.823,1.34
44,0.666,24.7,0.690,0.690,0.823,1.38
45,0.682,24.6,0.700,0.700,0.820,1.40
46,0.698,24.5,0.710,0.710,0.817,1.42
47,0.714,24.5,0.730,0.730,0.817,1.46
48,0.730,25.0,0.740,0.740,0.833,1.48
49,0.746,25.8,0.760,0.760,0.860,1.52
50,0.762,26.6,0.770,0.770,0.887,1.54
51,0.778,27.5,0.790,0.790,0.917,1.58
52,0.794,28.5,0.800,0.800,0.950,1.60
53,0.810,29.6,0.820,0.820,0.987,1.64
54,0.826,30.7,0.830,0.830,1.023,1.66
55,0.842,31.8,0.850,0.850,1.060,1.70
56,0.858,32.9,0.860,0.860,1.097,1.72
57,0.874,33.5,0.880,0.880,1.117,1.76
58,0.890,34.8,0.890,0.890,1.160,1.78
59,0.907,35.8,0.910,0.910,1.193,1.82
60,0.923,36.8,0.920,0.920,1.227,1.84
61,0.939,37.6,0.930,0.930,1.253,1.86
62,0.955,38.2,0.950,0.950,1.273,1.90
63,0.971,38.9,0.960,0.960,1.297,1.92
64,0.987,39.4,0.980,0.980,1.313,1.96
65,1.002,39.8,0.990,0.990,1.327,1.98
66,1.018,40.4,1.010,1.010,1.347,2.02
67,1.035,40.7,1.020,1.020,1.357,2.04
68,1.050,41.2,1.040,1.040,1.373,2.08
69,1.066,41.6,1.050,1.050,1.387,2.10
70,1.082,41.8,1.070,1.070,1.393,2.14
71,1.098,42.1,1.080,1.080,1.403,2.16
72,1.114,42.7,1.100,1.100,1.423,2.20
73,1.131,43.2,1.110,1.110,1.440,2.22
74,1.146,43.6,1.120,1.120,1.453,2.24
75,1.163,44.1,1.140,1.140,1.470,2.28
76,1.179,44.5,1.150,1.150,1.483,2.30
77,1.195,44.8,1.170,1.170,1.493,2.34
78,1.210,45.2,1.180,1.180,1.507,2.36
79,1.226,45.6,1.200,1.200,1.520,2.40
80,1.243,46.0,1.210,1.210,1.533,2.42
81,1.258,46.4,1.230,1.230,1.547,2.46
82,1.274,47.0,1.240,1.240,1.567,2.48
83,1.290,47.5,1.260,1.260,1.583,2.52
84,1.307,47.7,1.270,1.270,1.590,2.54
85,1.321,48.2,1.280,1.280,1.607,2.56
86,1.338,48.7,1.300,1.300,1.623,2.60
87,1.354,49.3,1.310,1.310,1.643,2.62
88,1.370,49.8,1.330,1.330,1.660,2.66
89,1.386,50.2,1.340,1.340,1.673,2.68
90,1.402,50.7,1.360,1.360,1.690,2.72
91,1.419,51.1,1.370,1.370,1.703,2.74
92,1.434,51.5,1.390,1.390,1.717,2.78
93,1.451,51.9,1.400,1.400,1.730,2.80
94,1.466,52.1,1.420,1.420,1.737,2.84
95,1.482,52.5,1.430,1.430,1.750,2.86
96,1.498,52.7,1.440,1.440,1.757,2.88
97,1.515,52.9,1.460,1.460,1.763,2.92
98,1.530,53.2,1.470,1.470,1.773,2.94
99,1.547,53.5,1.490,1.490,1.783,2.98
100,1.562,53.7,1.500,1.500,1.790,3.00
101,1.578,54.1,1.520,1.520,1.803,3.04
102,1.595,54.3,1.530,1.530,1.810,3.06
103,1.610,54.5,1.550,1.550,1.817,3.10
104,1.626,54.8,1.560,1.560,1.827,3.12
105,1.642,55.0,1.580,1.580,1.833,3.16
106,1.658,55.3,1.590,1.590,1.843,3.18
107,1.674,55.6,1.600,1.600,1.853,3.20
108,1.690,55.9,1.620,1.620,1.863,3.24
109,1.707,56.1,1.630,1.630,1.870,3.26
110,1.722,56.4,1.650,1.650,1.880,3.30
111,1.738,56.7,1.660,1.660,1.890,3.32
112,1.754,57.0,1.680,1.680,1.900,3.36
113,1.770,57.2,1.690,1.690,1.907,3.38
114,1.787,57.5,1.710,1.710,1.917,3.42
115,1.802,57.7,1.720,1.720,1.923,3.44
116,1.819,57.9,1.740,1.740,1.930,3.48
117,1.833,58.2,1.750,1.750,1.940,3.50
118,1.850,58.4,1.760,1.760,1.947,3.52
119,1.867,58.7,1.780,1.780,1.957,3.56
120,1.882,59.0,1.790,1.790,1.967,3.58
121,1.898,59.2,1.810,1.810,1.973,3.62
122,1.915,59.3,1.820,1.820,1.977,3.64
123,1.930,59.5,1.840,1.840,1.983,3.68
124,1.946,59.8,1.850,1.850,1.993,3.70
125,1.962,60.1,1.870,1.870,2.003,3.74
126,1.978,60.2,1.880,1.880,2.007,3.76
127,1.994,60.3,1.900,1.900,2.010,3.80
128,2.011,60.4,1.910,1.910,2.013,3.82
129,2.026,60.6,1.920,1.920,2.020,3.84
130,2.042,60.6,1.940,1.940,2.020,3.88
131,2.058,60.8,1.950,1.950,2.027,3.90
132,2.074,60.8,1.970,1.970,2.027,3.94
133,2.090,60.9,1.980,1.980,2.030,3.96
134,2.106,61.0,2.000,2.000,2.033,4.00
135,2.123,61.1,2.010,2.010,2.037,4.02
136,2.139,61.4,2.030,2.030,2.047,4.06
137,2.155,61.4,2.040,2.040,2.047,4.08
138,2.171,61.5,2.050,2.050,2.050,4.10
139,2.187,61.8,2.070,2.070,2.060,4.14
140,2.203,62.1,2.080,2.080,2.070,4.16
141,2.218,62.4,2.100,2.100,2.080,4.20
142,2.234,62.7,2.110,2.110,2.090,4.22
143,2.251,63.0,2.130,2.130,2.100,4.26
144,2.267,63.4,2.140,2.140,2.113,4.28
145,2.283,63.7,2.160,2.160,2.123,4.32
146,2.299,64.0,2.170,2.170,2.133,4.34
147,2.315,64.4,2.180,2.180,2.147,4.36
148,2.331,64.7,2.200,2.200,2.157,4.40
149,2.346,65.0,2.210,2.210,2.167,4.42
150,2.363,65.2,2.230,2.230,2.173,4.46
151,2.379,65.3,2.240,2.240,2.177,4.48
152,2.395,65.7,2.260,2.260,2.190,4.52
153,2.411,66.2,2.270,2.270,2.207,4.54
154,2.427,66.7,2.290,2.290,2.223,4.58
155,2.443,67.1,2.300,2.300,2.237,4.60
156,2.459,67.4,2.320,2.320,2.247,4.64
157,2.475,67.8,2.330,2.330,2.260,4.66
158,2.491,68.1,2.340,2.340,2.270,4.68
159,2.507,68.5,2.360,2.360,2.283,4.72
160,2.523,68.7,2.370,2.370,2.290,4.74
161,2.538,69.0,2.390,2.390,2.300,4.78
162,2.554,69.2,2.400,2.400,2.307,4.80
163,2.570,69.5,2.420,2.420,2.317,4.84
164,2.586,69.7,2.430,2.430,2.323,4.86
165,2.602,70.0,2.450,2.450,2.333,4.90
166,2.619,70.2,2.460,2.460,2.340,4.92
167,2.635,70.5,2.470,2.470,2.350,4.94
168,2.650,70.8,2.490,2.490,2.360,4.98
169,2.666,71.0,2.500,2.500,2.367,5.00
170,2.683,71.3,2.520,2.520,2.377,5.04
171,2.699,71.5,2.530,2.530,2.383,5.06
172,2.715,71.8,2.550,2.550,2.393,5.10
173,2.730,72.0,2.560,2.560,2.400,5.12
174,2.746,72.4,2.580,2.580,2.413,5.16
175,2.762,72.7,2.590,2.590,2.423,5.18
176,2.778,72.9,2.600,2.600,2.430,5.20
177,2.794,73.1,2.620,2.620,2.437,5.24
178,2.811,73.6,2.630,2.630,2.453,5.26
179,2.827,73.8,2.650,2.650,2.460,5.30
180,2.843,73.9,2.660,2.660,2.463,5.32
181,2.859,74.2,2.680,2.680,2.473,5.36
182,2.874,74.4,2.690,2.690,2.480,5.38
183,2.890,74.7,2.700,2.700,2.490,5.40
184,2.907,74.9,2.720,2.720,2.497,5.44
185,2.923,75.1,2.730,2.730,2.503,5.46
186,2.939,75.4,2.750,2.750,2.513,5.50
187,2.955,75.6,2.760,2.760,2.520,5.52
188,2.971,75.9,2.780,2.780,2.530,5.56
189,2.987,76.2,2.790,2.790,2.540,5.58
190,3.003,76.4,2.810,2.810,2.547,5.62
191,3.018,76.7,2.820,2.820,2.557,5.64
192,3.035,76.9,2.830,2.830,2.563,5.66
193,3.051,77.2,2.850,2.850,2.573,5.70
194,3.067,77.5,2.860,2.860,2.583,5.72
195,3.083,77.8,2.880,2.880,2.593,5.76
196,3.099,78.1,2.890,2.890,2.603,5.78
197,3.115,78.3,2.910,2.910,2.610,5.82
198,3.131,78.5,2.920,2.920,2.617,5.84
199,3.147,78.7,2.940,2.940,2.623,5.88
200,3.163,78.9,2.950,2.950,2.630,5.90
201,3.179,79.2,2.960,2.960,2.640,5.92
202,3.195,79.5,2.980,2.980,2.650,5.96
203,3.211,79.7,2.990,2.990,2.657,5.98
204,3.227,79.8,3.010,3.010,2.660,6.02
205,3.243,80.1,3.020,3.020,2.670,6.04
206,3.259,80.4,3.040,3.040,2.680,6.08
207,3.275,80.7,3.050,3.050,2.690,6.10
208,3.291,81.0,3.060,3.060,2.700,6.12
209,3.307,81.4,3.080,3.080,2.713,6.16
210,3.323,81.6,3.090,3.090,2.720,6.18
211,3.339,81.9,3.110,3.110,2.730,6.22
212,3.355,82.2,3.120,3.120,2.740,6.24
213,3.371,82.4,3.140,3.140,2.747,6.28
214,3.387,82.7,3.150,3.150,2.757,6.30
215,3.403,82.9,3.170,3.170,2.763,6.34
216,3.419,83.1,3.180,3.180,2.770,6.36
217,3.435,83.2,3.190,3.190,2.773,6.38
218,3.451,83.5,3.210,3.210,2.783,6.42
219,3.467,83.7,3.220,3.220,2.790,6.44
220,3.483,83.8,3.240,3.240,2.793,6.48
221,3.498,84.1,3.250,3.250,2.803,6.50
222,3.515,84.2,3.270,3.270,2.807,6.54
223,3.532,84.4,3.280,3.280,2.813,6.56
224,3.547,84.5,3.290,3.290,2.817,6.58
225,3.563,84.6,3.310,3.310,2.820,6.62
226,3.579,84.6,3.320,3.320,2.820,6.64
227,3.595,84.7,3.340,3.340,2.823,6.68
228,3.611,84.7,3.350,3.350,2.823,6.70
229,3.627,84.6,3.370,3.370,2.820,6.74
230,3.643,84.6,3.380,3.380,2.820,6.76
231,3.659,84.5,3.400,3.400,2.817,6.80
232,3.675,84.3,3.410,3.410,2.810,6.82
233,3.691,83.9,3.420,3.420,2.797,6.84
234,3.707,83.3,3.440,3.440,2.777,6.88
235,3.724,69.7,3.450,3.450,2.323,6.90
236,3.739,48.8,3.470,3.470,1.627,6.94
237,3.757,34.7,3.480,3.480,1.157,6.96
