일련번호,시간,하중,변위,테이블,강도,변형율
,[sec],[kgf],[mm],[mm],[kgf/mm²],[%]
1,0.000,0.0,0.000,0.000,0.000,0.00
2,0.000,6.8,0.000,0.060,0.227,0.00
3,0.010,8.3,0.080,0.080,0.277,0.16
4,0.026,9.7,0.090,0.090,0.323,0.18
5,0.042,11.2,0.110,0.110,0.373,0.22
6,0.058,12.6,0.120,0.120,0.420,0.24
7,0.074,14.0,0.140,0.140,0.467,0.28
8,0.090,15.4,0.150,0.150,0.513,0.30
9,0.106,16.8,0.170,0.170,0.560,0.34
10,0.122,18.1,0.180,0.180,0.603,0.36
11,0.138,19.4,0.200,0.200,0.647,0.40
12,0.154,20.6,0.210,0.210,0.687,0.42
13,0.170,21.5,0.230,0.230,0.717,0.46
14,0.186,22.7,0.240,0.240,0.757,0.48
15,0.202,23.7,0.260,0.260,0.790,0.52
16,0.218,24.6,0.270,0.270,0.820,0.54
17,0.234,25.2,0.290,0.290,0.840,0.58
18,0.250,25.4,0.300,0.300,0.847,0.60
19,0.267,25.7,0.320,0.320,0.857,0.64
20,0.283,26.2,0.330,0.330,0.873,0.66
21,0.298,26.6,0.340,0.340,0.887,0.68
22,0.314,27.0,0.360,0.360,0.900,0.72
23,0.331,27.4,0.370,0.370,0.913,0.74
24,0.346,27.8,0.390,0.390,0.927,0.78
25,0.362,28.4,0.400,0.400,0.947,0.80
26,0.378,29.1,0.420,0.420,0.970,0.84
27,0.395,30.0,0.430,0.430,1.000,0.86
28,0.409,31.3,0.450,0.450,1.043,0.90
29,0.425,32.4,0.460,0.460,1.080,0.92
30,0.442,33.6,0.480,0.480,1.120,0.96
31,0.459,34.7,0.490,0.490,1.157,0.98
32,0.474,35.6,0.510,0.510,1.187,1.02
33,0.490,35.8,0.520,0.520,1.193,1.04
34,0.506,33.1,0.540,0.540,1.103,1.08
35,0.521,31.0,0.550,0.550,1.033,1.10
36,0.538,29.5,0.560,0.560,0.983,1.12
37,0.554,28.6,0.580,0.580,0.953,1.16
38,0.571,28.0,0.590,0.590,0.933,1.18
39,0.586,27.6,0.610,0.610,0.920,1.22
40,0.603,27.5,0.620,0.620,0.917,1.24
41,0.618,27.5,0.640,0.640,0.917,1.28
42,0.634,27.5,0.650,0.650,0.917,1.30
43,0.650,27.8,0.670,0.670,0.927,1.34
44,0.666,28.2,0.680,0.680,0.940,1.36
45,0.683,28.8,0.700,0.700,0.960,1.40
46,0.699,29.5,0.710,0.710,0.983,1.42
47,0.714,30.4,0.730,0.730,1.013,1.46
48,0.730,31.4,0.740,0.740,1.047,1.48
49,0.746,32.6,0.760,0.760,1.087,1.52
50,0.763,33.7,0.770,0.770,1.123,1.54
51,0.778,34.9,0.780,0.780,1.163,1.56
52,0.795,36.1,0.800,0.800,1.203,1.60
53,0.810,37.0,0.810,0.810,1.233,1.62
54,0.826,38.1,0.830,0.830,1.270,1.66
55,0.842,39.3,0.840,0.840,1.310,1.68
56,0.859,40.3,0.860,0.860,1.343,1.72
57,0.875,41.1,0.870,0.870,1.370,1.74
58,0.891,41.8,0.890,0.890,1.393,1.78
59,0.907,42.4,0.900,0.900,1.413,1.80
60,0.923,43.0,0.920,0.920,1.433,1.84
61,0.939,43.5,0.930,0.930,1.450,1.86
62,0.955,44.0,0.950,0.950,1.467,1.90
63,0.970,44.3,0.960,0.960,1.477,1.92
64,0.986,44.8,0.970,0.970,1.493,1.94
65,1.002,45.2,0.990,0.990,1.507,1.98
66,1.018,45.6,1.000,1.000,1.520,2.00
67,1.034,45.8,1.020,1.020,1.527,2.04
68,1.051,46.5,1.030,1.030,1.550,2.06
69,1.067,46.8,1.050,1.050,1.560,2.10
70,1.082,47.0,1.060,1.060,1.567,2.12
71,1.098,47.4,1.080,1.080,1.580,2.16
72,1.114,47.6,1.090,1.090,1.587,2.18
73,1.130,48.0,1.110,1.110,1.600,2.22
74,1.146,48.2,1.120,1.120,1.607,2.24
75,1.163,48.5,1.140,1.140,1.617,2.28
76,1.179,48.8,1.150,1.150,1.627,2.30
77,1.194,49.1,1.160,1.160,1.637,2.32
78,1.211,49.5,1.180,1.180,1.650,2.36
79,1.226,49.8,1.190,1.190,1.660,2.38
80,1.243,50.1,1.210,1.210,1.670,2.42
81,1.258,50.5,1.220,1.220,1.683,2.44
82,1.274,50.8,1.240,1.240,1.693,2.48
83,1.290,51.2,1.250,1.250,1.707,2.50
84,1.307,51.5,1.270,1.270,1.717,2.54
85,1.322,51.9,1.280,1.280,1.730,2.56
86,1.338,52.3,1.300,1.300,1.743,2.60
87,1.355,52.6,1.310,1.310,1.753,2.62
88,1.370,53.0,1.320,1.320,1.767,2.64
89,1.386,53.3,1.340,1.340,1.777,2.68
90,1.403,53.6,1.350,1.350,1.787,2.70
91,1.419,54.0,1.370,1.370,1.800,2.74
92,1.435,54.4,1.380,1.380,1.813,2.76
93,1.451,54.7,1.400,1.400,1.823,2.80
94,1.467,54.9,1.410,1.410,1.830,2.82
95,1.482,55.5,1.430,1.430,1.850,2.86
96,1.499,55.9,1.440,1.440,1.863,2.88
97,1.515,56.3,1.460,1.460,1.877,2.92
98,1.531,56.6,1.470,1.470,1.887,2.94
99,1.546,57.1,1.490,1.490,1.903,2.98
100,1.563,57.6,1.510,1.510,1.920,3.02
101,1.578,57.8,1.510,1.510,1.927,3.02
102,1.595,58.2,1.530,1.530,1.940,3.06
103,1.610,58.5,1.540,1.540,1.950,3.08
104,1.626,59.1,1.570,1.570,1.970,3.14
105,1.642,59.4,1.580,1.580,1.980,3.16
106,1.659,59.8,1.590,1.590,1.993,3.18
107,1.675,60.0,1.610,1.610,2.000,3.22
108,1.691,60.5,1.620,1.620,2.017,3.24
109,1.707,60.9,1.640,1.640,2.030,3.28
110,1.723,61.2,1.650,1.650,2.040,3.30
111,1.739,61.5,1.670,1.670,2.050,3.34
112,1.755,61.9,1.680,1.680,2.063,3.36
113,1.770,62.2,1.700,1.700,2.073,3.40
114,1.786,62.6,1.710,1.710,2.087,3.42
115,1.803,62.9,1.720,1.720,2.097,3.44
116,1.819,63.2,1.740,1.740,2.107,3.48
117,1.835,63.5,1.750,1.750,2.117,3.50
118,1.851,63.9,1.770,1.770,2.130,3.54
119,1.866,64.2,1.780,1.780,2.140,3.56
120,1.883,64.5,1.800,1.800,2.150,3.60
121,1.899,64.8,1.810,1.810,2.160,3.62
122,1.915,65.1,1.830,1.830,2.170,3.66
123,1.931,65.5,1.840,1.840,2.183,3.68
124,1.947,65.8,1.860,1.860,2.193,3.72
125,1.963,66.1,1.870,1.870,2.203,3.74
126,1.979,66.4,1.880,1.880,2.213,3.76
127,1.994,66.6,1.900,1.900,2.220,3.80
128,2.011,66.9,1.910,1.910,2.230,3.82
129,2.027,67.1,1.930,1.930,2.237,3.86
130,2.043,67.3,1.940,1.940,2.243,3.88
131,2.059,67.5,1.960,1.960,2.250,3.92
132,2.075,67.7,1.970,1.970,2.257,3.94
133,2.091,67.9,1.990,1.990,2.263,3.98
134,2.107,67.9,2.000,2.000,2.263,4.00
135,2.122,68.1,2.020,2.020,2.270,4.04
136,2.138,68.4,2.030,2.030,2.280,4.06
137,2.154,68.6,2.040,2.040,2.287,4.08
138,2.171,68.8,2.060,2.060,2.293,4.12
139,2.187,69.0,2.070,2.070,2.300,4.14
140,2.203,69.2,2.090,2.090,2.307,4.18
141,2.219,69.4,2.100,2.100,2.313,4.20
142,2.235,69.6,2.120,2.120,2.320,4.24
143,2.251,69.7,2.130,2.130,2.323,4.26
144,2.267,69.9,2.150,2.150,2.330,4.30
145,2.283,69.9,2.160,2.160,2.330,4.32
146,2.299,70.0,2.170,2.170,2.333,4.34
147,2.315,70.0,2.190,2.190,2.333,4.38
148,2.331,69.9,2.200,2.200,2.330,4.40
149,2.347,69.9,2.220,2.220,2.330,4.44
150,2.363,69.9,2.230,2.230,2.330,4.46
151,2.378,69.9,2.250,2.250,2.330,4.50
152,2.394,69.9,2.260,2.260,2.330,4.52
153,2.411,69.8,2.280,2.280,2.327,4.56
154,2.427,69.7,2.290,2.290,2.323,4.58
155,2.443,69.5,2.300,2.300,2.317,4.60
156,2.459,69.4,2.320,2.320,2.313,4.64
157,2.475,69.2,2.330,2.330,2.307,4.66
158,2.491,69.0,2.350,2.350,2.300,4.70
159,2.507,68.6,2.360,2.360,2.287,4.72
160,2.522,68.4,2.380,2.380,2.280,4.76
161,2.538,68.0,2.390,2.390,2.267,4.78
162,2.555,61.4,2.410,2.410,2.047,4.82
163,2.571,45.1,2.420,2.420,1.503,4.84
164,2.587,33.0,2.430,2.430,1.100,4.86
