일련번호,시간,하중,변위,테이블,강도,변형율
,[sec],[kgf],[mm],[mm],[kgf/mm²],[%]
1,0.000,0.0,0.000,0.000,0.000,0.00
2,0.000,5.2,0.000,0.060,0.173,0.00
3,0.006,6.4,0.070,0.070,0.213,0.14
4,0.021,7.7,0.080,0.080,0.257,0.16
5,0.037,9.1,0.100,0.100,0.303,0.20
6,0.053,10.4,0.110,0.110,0.347,0.22
7,0.069,11.4,0.130,0.130,0.380,0.26
8,0.085,12.9,0.140,0.140,0.430,0.28
9,0.102,14.4,0.160,0.160,0.480,0.32
10,0.117,15.9,0.170,0.170,0.530,0.34
11,0.133,17.2,0.190,0.190,0.573,0.38
12,0.149,18.4,0.200,0.200,0.613,0.40
13,0.165,19.4,0.220,0.220,0.647,0.44
14,0.182,20.0,0.230,0.230,0.667,0.46
15,0.198,20.6,0.250,0.250,0.687,0.50
16,0.214,21.2,0.260,0.260,0.707,0.52
17,0.230,21.7,0.280,0.280,0.723,0.56
18,0.246,22.2,0.290,0.290,0.740,0.58
19,0.262,22.4,0.310,0.310,0.747,0.62
20,0.278,22.4,0.320,0.320,0.747,0.64
21,0.294,22.4,0.340,0.340,0.747,0.68
22,0.310,23.0,0.350,0.350,0.767,0.70
23,0.325,23.8,0.370,0.370,0.793,0.74
24,0.341,24.7,0.380,0.380,0.823,0.76
25,0.357,25.6,0.390,0.390,0.853,0.78
26,0.374,26.5,0.410,0.410,0.883,0.82
27,0.390,27.3,0.420,0.420,0.910,0.84
28,0.406,28.0,0.440,0.440,0.933,0.88
29,0.421,28.7,0.450,0.450,0.957,0.90
30,0.437,29.3,0.470,0.470,0.977,0.94
31,0.453,29.9,0.480,0.480,0.997,0.96
32,0.470,30.5,0.500,0.500,1.017,1.00
33,0.485,31.0,0.510,0.510,1.033,1.02
34,0.502,31.4,0.530,0.530,1.047,1.06
35,0.518,29.6,0.540,0.540,0.987,1.08
36,0.533,26.3,0.560,0.560,0.877,1.12
37,0.549,24.2,0.570,0.570,0.807,1.14
38,0.566,22.9,0.590,0.590,0.763,1.18
39,0.581,21.8,0.600,0.600,0.727,1.20
40,0.598,21.3,0.610,0.610,0.710,1.22
41,0.614,20.9,0.630,0.630,0.697,1.26
42,0.630,20.7,0.640,0.640,0.690,1.28
43,0.646,20.6,0.660,0.660,0.687,1.32
44,0.662,20.9,0.670,0.670,0.697,1.34
45,0.678,21.5,0.690,0.690,0.717,1.38
46,0.694,22.2,0.700,0.700,0.740,1.40
47,0.709,22.6,0.720,0.720,0.753,1.44
48,0.726,23.8,0.730,0.730,0.793,1.46
49,0.742,24.8,0.750,0.750,0.827,1.50
50,0.757,26.0,0.760,0.760,0.867,1.52
51,0.774,27.1,0.780,0.780,0.903,1.56
52,0.790,28.1,0.790,0.790,0.937,1.58
53,0.806,29.2,0.810,0.810,0.973,1.62
54,0.822,30.1,0.820,0.820,1.003,1.64
55,0.838,31.0,0.830,0.830,1.033,1.66
56,0.854,31.8,0.850,0.850,1.060,1.70
57,0.870,32.6,0.860,0.860,1.087,1.72
58,0.886,33.4,0.880,0.880,1.113,1.76
59,0.902,34.2,0.890,0.890,1.140,1.78
60,0.918,34.5,0.910,0.910,1.150,1.82
61,0.933,35.1,0.920,0.920,1.170,1.84
62,0.950,35.9,0.940,0.940,1.197,1.88
63,0.966,36.5,0.950,0.950,1.217,1.90
64,0.982,37.1,0.970,0.970,1.237,1.94
65,0.998,37.6,0.980,0.980,1.253,1.96
66,1.014,38.0,1.000,1.000,1.267,2.00
67,1.030,38.5,1.010,1.010,1.283,2.02
68,1.046,38.9,1.020,1.020,1.297,2.04
69,1.062,39.3,1.040,1.040,1.310,2.08
70,1.078,39.6,1.050,1.050,1.320,2.10
71,1.094,40.0,1.070,1.070,1.333,2.14
72,1.110,40.4,1.080,1.080,1.347,2.16
73,1.126,40.8,1.100,1.100,1.360,2.20
74,1.143,41.4,1.110,1.110,1.380,2.22
75,1.158,41.7,1.130,1.130,1.390,2.26
76,1.174,42.2,1.140,1.140,1.407,2.28
77,1.190,42.5,1.160,1.160,1.417,2.32
78,1.206,42.9,1.170,1.170,1.430,2.34
79,1.222,43.3,1.190,1.190,1.443,2.38
80,1.238,43.7,1.200,1.200,1.457,2.40
81,1.254,44.1,1.210,1.210,1.470,2.42
82,1.270,44.5,1.230,1.230,1.483,2.46
83,1.286,44.9,1.240,1.240,1.497,2.48
84,1.302,45.2,1.260,1.260,1.507,2.52
85,1.318,45.5,1.270,1.270,1.517,2.54
86,1.334,45.9,1.290,1.290,1.530,2.58
87,1.350,46.4,1.300,1.300,1.547,2.60
88,1.366,46.7,1.320,1.320,1.557,2.64
89,1.382,47.1,1.330,1.330,1.570,2.66
90,1.398,47.5,1.350,1.350,1.583,2.70
91,1.414,47.8,1.360,1.360,1.593,2.72
92,1.430,48.1,1.380,1.380,1.603,2.76
93,1.446,48.6,1.390,1.390,1.620,2.78
94,1.462,48.8,1.400,1.400,1.627,2.80
95,1.478,49.3,1.420,1.420,1.643,2.84
96,1.494,49.6,1.430,1.430,1.653,2.86
97,1.510,49.9,1.450,1.450,1.663,2.90
98,1.526,50.3,1.460,1.460,1.677,2.92
99,1.542,50.6,1.480,1.480,1.687,2.96
100,1.558,50.7,1.490,1.490,1.690,2.98
101,1.574,51.2,1.510,1.510,1.707,3.02
102,1.590,51.6,1.520,1.520,1.720,3.04
103,1.607,52.0,1.540,1.540,1.733,3.08
104,1.622,52.4,1.550,1.550,1.747,3.10
105,1.638,52.8,1.560,1.560,1.760,3.12
106,1.654,53.1,1.580,1.580,1.770,3.16
107,1.670,53.4,1.590,1.590,1.780,3.18
108,1.686,53.8,1.610,1.610,1.793,3.22
109,1.702,54.2,1.620,1.620,1.807,3.24
110,1.718,54.6,1.640,1.640,1.820,3.28
111,1.734,55.0,1.650,1.650,1.833,3.30
112,1.750,55.4,1.670,1.670,1.847,3.34
113,1.766,55.6,1.680,1.680,1.853,3.36
114,1.782,55.9,1.700,1.700,1.863,3.40
115,1.798,56.4,1.710,1.710,1.880,3.42
116,1.814,56.8,1.720,1.720,1.893,3.44
117,1.830,57.0,1.740,1.740,1.900,3.48
118,1.846,57.4,1.750,1.750,1.913,3.50
119,1.862,57.7,1.770,1.770,1.923,3.54
120,1.878,58.0,1.780,1.780,1.933,3.56
121,1.894,58.3,1.800,1.800,1.943,3.60
122,1.910,58.6,1.810,1.810,1.953,3.62
123,1.927,58.9,1.830,1.830,1.963,3.66
124,1.943,59.2,1.840,1.840,1.973,3.68
125,1.958,59.5,1.850,1.850,1.983,3.70
126,1.974,59.7,1.870,1.870,1.990,3.74
127,1.990,60.2,1.880,1.880,2.007,3.76
128,2.006,60.4,1.900,1.900,2.013,3.80
129,2.022,60.6,1.910,1.910,2.020,3.82
130,2.038,60.9,1.930,1.930,2.030,3.86
131,2.054,61.1,1.940,1.940,2.037,3.88
132,2.070,61.3,1.960,1.960,2.043,3.92
133,2.086,61.5,1.970,1.970,2.050,3.94
134,2.102,61.8,1.990,1.990,2.060,3.98
135,2.118,61.8,2.000,2.000,2.060,4.00
136,2.134,62.0,2.010,2.010,2.067,4.02
137,2.150,62.0,2.030,2.030,2.067,4.06
138,2.166,62.2,2.050,2.050,2.073,4.10
139,2.182,62.1,2.070,2.070,2.070,4.14
140,2.197,62.0,2.080,2.080,2.067,4.16
141,2.214,61.9,2.090,2.090,2.063,4.18
142,2.231,61.7,2.110,2.110,2.057,4.22
143,2.246,61.5,2.120,2.120,2.050,4.24
144,2.263,61.2,2.140,2.140,2.040,4.28
145,2.279,60.8,2.150,2.150,2.027,4.30
146,2.295,60.4,2.170,2.170,2.013,4.34
147,2.310,59.8,2.180,2.180,1.993,4.36
148,2.327,59.1,2.200,2.200,1.970,4.40
149,2.343,51.8,2.210,2.210,1.727,4.42
150,2.359,36.0,2.220,2.220,1.200,4.44
151,2.374,24.8,2.240,2.240,0.827,4.48
