일련번호,시간,하중,변위,테이블,강도,변형율
,[sec],[kgf],[mm],[mm],[kgf/mm²],[%]
1,0.000,0.0,0.000,0.000,0.000,0.00
2,0.000,6.6,0.000,0.070,0.220,0.00
3,0.010,7.8,0.080,0.080,0.260,0.16
4,0.026,9.0,0.100,0.100,0.300,0.20
5,0.042,10.2,0.110,0.110,0.340,0.22
6,0.058,11.4,0.130,0.130,0.380,0.26
7,0.074,12.5,0.140,0.140,0.417,0.28
8,0.090,13.2,0.160,0.160,0.440,0.32
9,0.106,14.3,0.170,0.170,0.477,0.34
10,0.122,15.4,0.190,0.190,0.513,0.38
11,0.138,16.5,0.200,0.200,0.550,0.40
12,0.155,17.4,0.220,0.220,0.580,0.44
13,0.170,18.2,0.230,0.230,0.607,0.46
14,0.186,18.9,0.240,0.240,0.630,0.48
15,0.202,19.4,0.260,0.260,0.647,0.52
16,0.218,19.8,0.270,0.270,0.660,0.54
17,0.234,20.2,0.290,0.290,0.673,0.58
18,0.250,20.5,0.300,0.300,0.683,0.60
19,0.266,20.5,0.320,0.320,0.683,0.64
20,0.282,20.5,0.330,0.330,0.683,0.66
21,0.298,20.5,0.350,0.350,0.683,0.70
22,0.314,20.6,0.360,0.360,0.687,0.72
23,0.331,20.8,0.380,0.380,0.693,0.76
24,0.347,21.1,0.390,0.390,0.703,0.78
25,0.363,21.4,0.410,0.410,0.713,0.82
26,0.379,21.5,0.420,0.420,0.717,0.84
27,0.395,21.8,0.440,0.440,0.727,0.88
28,0.411,22.0,0.450,0.450,0.733,0.90
29,0.427,22.4,0.470,0.470,0.747,0.94
30,0.443,22.7,0.480,0.480,0.757,0.96
31,0.459,23.1,0.490,0.490,0.770,0.98
32,0.475,23.4,0.510,0.510,0.780,1.02
33,0.491,23.8,0.520,0.520,0.793,1.04
34,0.507,24.0,0.540,0.540,0.800,1.08
35,0.523,24.6,0.550,0.550,0.820,1.10
36,0.538,24.9,0.570,0.570,0.830,1.14
37,0.554,25.2,0.580,0.580,0.840,1.16
38,0.570,25.4,0.600,0.600,0.847,1.20
39,0.586,25.7,0.610,0.610,0.857,1.22
40,0.601,25.9,0.630,0.630,0.863,1.26
41,0.618,26.1,0.640,0.640,0.870,1.28
42,0.635,26.2,0.660,0.660,0.873,1.32
43,0.651,25.9,0.670,0.670,0.863,1.34
44,0.667,25.1,0.690,0.690,0.837,1.38
45,0.683,24.0,0.700,0.700,0.800,1.40
46,0.699,23.0,0.710,0.710,0.767,1.42
47,0.715,22.4,0.730,0.730,0.747,1.46
48,0.731,22.0,0.740,0.740,0.733,1.48
49,0.747,22.0,0.760,0.760,0.733,1.52
50,0.763,21.7,0.770,0.770,0.723,1.54
51,0.779,21.5,0.790,0.790,0.717,1.58
52,0.795,21.5,0.800,0.800,0.717,1.60
53,0.810,21.4,0.820,0.820,0.713,1.64
54,0.826,21.4,0.830,0.830,0.713,1.66
55,0.843,21.7,0.850,0.850,0.723,1.70
56,0.858,22.0,0.860,0.860,0.733,1.72
57,0.874,22.2,0.880,0.880,0.740,1.76
58,0.890,22.3,0.890,0.890,0.743,1.78
59,0.906,22.6,0.900,0.900,0.753,1.80
60,0.922,23.1,0.920,0.920,0.770,1.84
61,0.939,23.4,0.930,0.930,0.780,1.86
62,0.954,24.1,0.950,0.950,0.803,1.90
63,0.971,24.9,0.960,0.960,0.830,1.92
64,0.987,25.7,0.980,0.980,0.857,1.96
65,1.003,26.5,0.990,0.990,0.883,1.98
66,1.018,27.2,1.010,1.010,0.907,2.02
67,1.035,27.9,1.020,1.020,0.930,2.04
68,1.051,28.4,1.040,1.040,0.947,2.08
69,1.068,28.9,1.050,1.050,0.963,2.10
70,1.084,29.4,1.070,1.070,0.980,2.14
71,1.099,29.7,1.080,1.080,0.990,2.16
72,1.115,29.9,1.090,1.090,0.997,2.18
73,1.131,30.3,1.110,1.110,1.010,2.22
74,1.147,30.5,1.120,1.120,1.017,2.24
75,1.163,30.8,1.140,1.140,1.027,2.28
76,1.179,31.0,1.150,1.150,1.033,2.30
77,1.195,31.2,1.170,1.170,1.040,2.34
78,1.211,31.3,1.180,1.180,1.043,2.36
79,1.226,31.5,1.200,1.200,1.050,2.40
80,1.243,31.7,1.210,1.210,1.057,2.42
81,1.259,32.0,1.230,1.230,1.067,2.46
82,1.275,32.2,1.240,1.240,1.073,2.48
83,1.291,32.5,1.260,1.260,1.083,2.52
84,1.307,32.6,1.270,1.270,1.087,2.54
85,1.323,32.9,1.280,1.280,1.097,2.56
86,1.339,33.1,1.300,1.300,1.103,2.60
87,1.355,33.3,1.310,1.310,1.110,2.62
88,1.371,33.6,1.330,1.330,1.120,2.66
89,1.387,33.9,1.340,1.340,1.130,2.68
90,1.403,34.1,1.360,1.360,1.137,2.72
91,1.419,34.3,1.370,1.370,1.143,2.74
92,1.435,34.6,1.390,1.390,1.153,2.78
93,1.451,34.8,1.400,1.400,1.160,2.80
94,1.467,35.1,1.420,1.420,1.170,2.84
95,1.483,35.3,1.430,1.430,1.177,2.86
96,1.499,35.6,1.440,1.440,1.187,2.88
97,1.515,35.8,1.460,1.460,1.193,2.92
98,1.531,36.2,1.470,1.470,1.207,2.94
99,1.547,36.5,1.490,1.490,1.217,2.98
100,1.563,36.8,1.500,1.500,1.227,3.00
101,1.579,36.8,1.520,1.520,1.227,3.04
102,1.595,37.2,1.530,1.530,1.240,3.06
103,1.611,37.6,1.550,1.550,1.253,3.10
104,1.627,37.8,1.560,1.560,1.260,3.12
105,1.643,38.1,1.580,1.580,1.270,3.16
106,1.659,38.5,1.590,1.590,1.283,3.18
107,1.675,38.8,1.600,1.600,1.293,3.20
108,1.691,39.1,1.620,1.620,1.303,3.24
109,1.707,39.4,1.630,1.630,1.313,3.26
110,1.723,39.7,1.650,1.650,1.323,3.30
111,1.739,40.1,1.660,1.660,1.337,3.32
112,1.755,40.4,1.680,1.680,1.347,3.36
113,1.771,40.8,1.690,1.690,1.360,3.38
114,1.787,41.1,1.710,1.710,1.370,3.42
115,1.803,41.3,1.720,1.720,1.377,3.44
116,1.818,41.7,1.740,1.740,1.390,3.48
117,1.835,42.1,1.750,1.750,1.403,3.50
118,1.851,42.4,1.760,1.760,1.413,3.52
119,1.867,42.8,1.780,1.780,1.427,3.56
120,1.883,43.0,1.790,1.790,1.433,3.58
121,1.899,43.4,1.810,1.810,1.447,3.62
122,1.915,43.7,1.820,1.820,1.457,3.64
123,1.931,44.1,1.840,1.840,1.470,3.68
124,1.947,44.4,1.850,1.850,1.480,3.70
125,1.963,44.7,1.870,1.870,1.490,3.74
126,1.979,45.0,1.880,1.880,1.500,3.76
127,1.995,45.3,1.900,1.900,1.510,3.80
128,2.011,45.8,1.910,1.910,1.527,3.82
129,2.027,46.1,1.920,1.920,1.537,3.84
130,2.043,46.3,1.940,1.940,1.543,3.88
131,2.059,46.6,1.950,1.950,1.553,3.90
132,2.075,46.9,1.970,1.970,1.563,3.94
133,2.091,47.2,1.980,1.980,1.573,3.96
134,2.107,47.4,2.000,2.000,1.580,4.00
135,2.123,47.8,2.010,2.010,1.593,4.02
136,2.139,48.0,2.030,2.030,1.600,4.06
137,2.155,48.2,2.040,2.040,1.607,4.08
138,2.171,48.5,2.050,2.050,1.617,4.10
139,2.187,48.8,2.070,2.070,1.627,4.14
140,2.203,49.0,2.080,2.080,1.633,4.16
141,2.218,49.3,2.100,2.100,1.643,4.20
142,2.235,49.7,2.110,2.110,1.657,4.22
143,2.251,50.0,2.130,2.130,1.667,4.26
144,2.268,50.3,2.140,2.140,1.677,4.28
145,2.283,50.6,2.160,2.160,1.687,4.32
146,2.299,51.0,2.170,2.170,1.700,4.34
147,2.315,51.2,2.180,2.180,1.707,4.36
148,2.331,51.6,2.200,2.200,1.720,4.40
149,2.347,51.9,2.210,2.210,1.730,4.42
150,2.363,52.1,2.230,2.230,1.737,4.46
151,2.379,52.5,2.240,2.240,1.750,4.48
152,2.395,52.8,2.260,2.260,1.760,4.52
153,2.411,53.2,2.270,2.270,1.773,4.54
154,2.427,53.2,2.290,2.290,1.773,4.58
155,2.443,53.6,2.300,2.300,1.787,4.60
156,2.459,54.1,2.320,2.320,1.803,4.64
157,2.475,54.4,2.330,2.330,1.813,4.66
158,2.491,54.8,2.340,2.340,1.827,4.68
159,2.507,55.2,2.360,2.360,1.840,4.72
160,2.523,55.5,2.370,2.370,1.850,4.74
161,2.539,56.0,2.390,2.390,1.867,4.78
162,2.555,56.2,2.400,2.400,1.873,4.80
163,2.571,56.6,2.420,2.420,1.887,4.84
164,2.586,57.0,2.430,2.430,1.900,4.86
165,2.603,57.2,2.450,2.450,1.907,4.90
166,2.619,57.6,2.460,2.460,1.920,4.92
167,2.635,58.0,2.470,2.470,1.933,4.94
168,2.651,58.3,2.490,2.490,1.943,4.98
169,2.667,58.6,2.500,2.500,1.953,5.00
170,2.683,58.9,2.520,2.520,1.963,5.04
171,2.699,59.2,2.530,2.530,1.973,5.06
172,2.715,59.5,2.550,2.550,1.983,5.10
173,2.730,59.8,2.560,2.560,1.993,5.12
174,2.747,60.1,2.580,2.580,2.003,5.16
175,2.763,60.4,2.590,2.590,2.013,5.18
176,2.780,60.8,2.600,2.600,2.027,5.20
177,2.796,61.0,2.620,2.620,2.033,5.24
178,2.811,61.3,2.630,2.630,2.043,5.26
179,2.827,61.6,2.650,2.650,2.053,5.30
180,2.843,61.8,2.660,2.660,2.060,5.32
181,2.859,62.2,2.680,2.680,2.073,5.36
182,2.876,62.4,2.690,2.690,2.080,5.38
183,2.892,62.6,2.710,2.710,2.087,5.42
184,2.908,62.8,2.720,2.720,2.093,5.44
185,2.924,62.9,2.730,2.730,2.097,5.46
186,2.939,63.1,2.750,2.750,2.103,5.50
187,2.955,63.3,2.760,2.760,2.110,5.52
188,2.971,63.3,2.780,2.780,2.110,5.56
189,2.987,63.3,2.790,2.790,2.110,5.58
190,3.003,63.3,2.810,2.810,2.110,5.62
191,3.019,63.3,2.820,2.820,2.110,5.64
192,3.035,63.2,2.830,2.830,2.107,5.66
193,3.051,63.1,2.850,2.850,2.103,5.70
194,3.067,62.7,2.860,2.860,2.090,5.72
195,3.083,62.6,2.880,2.880,2.087,5.76
196,3.099,62.4,2.890,2.890,2.080,5.78
197,3.115,62.2,2.910,2.910,2.073,5.82
198,3.130,61.9,2.920,2.920,2.063,5.84
199,3.147,61.6,2.940,2.940,2.053,5.88
200,3.163,61.3,2.950,2.950,2.043,5.90
201,3.179,61.0,2.960,2.960,2.033,5.92
202,3.195,60.7,2.980,2.980,2.023,5.96
203,3.211,60.3,2.990,2.990,2.010,5.98
204,3.227,59.9,3.010,3.010,1.997,6.02
205,3.243,59.4,3.020,3.020,1.980,6.04
206,3.260,55.3,3.040,3.040,1.843,6.08
207,3.276,44.2,3.050,3.050,1.473,6.10
208,3.293,30.6,3.060,3.060,1.020,6.12
