일련번호,시간,하중,변위,테이블,강도,변형율
,[sec],[kgf],[mm],[mm],[kgf/mm²],[%]
1,0.000,0.0,0.000,0.000,0.000,0.00
2,0.000,6.4,0.000,0.060,0.213,0.00
3,0.006,7.8,0.070,0.070,0.260,0.14
4,0.021,9.3,0.090,0.090,0.310,0.18
5,0.038,10.8,0.100,0.100,0.360,0.20
6,0.053,12.4,0.120,0.120,0.413,0.24
7,0.069,13.8,0.130,0.130,0.460,0.26
8,0.086,15.3,0.150,0.150,0.510,0.30
9,0.101,16.8,0.160,0.160,0.560,0.32
10,0.118,18.2,0.180,0.180,0.607,0.36
11,0.134,19.7,0.190,0.190,0.657,0.38
12,0.149,21.1,0.210,0.210,0.703,0.42
13,0.165,21.8,0.220,0.220,0.727,0.44
14,0.181,23.2,0.240,0.240,0.773,0.48
15,0.198,23.9,0.250,0.250,0.797,0.50
16,0.213,24.2,0.270,0.270,0.807,0.54
17,0.229,24.3,0.280,0.280,0.810,0.56
18,0.246,24.4,0.300,0.300,0.813,0.60
19,0.262,24.8,0.310,0.310,0.827,0.62
20,0.278,25.2,0.320,0.320,0.840,0.64
21,0.294,25.6,0.340,0.340,0.853,0.68
22,0.309,26.3,0.350,0.350,0.877,0.70
23,0.325,27.2,0.370,0.370,0.907,0.74
24,0.341,28.3,0.380,0.380,0.943,0.76
25,0.357,29.4,0.400,0.400,0.980,0.80
26,0.373,30.5,0.410,0.410,1.017,0.82
27,0.390,31.4,0.430,0.430,1.047,0.86
28,0.406,32.7,0.440,0.440,1.090,0.88
29,0.421,33.8,0.460,0.460,1.127,0.92
30,0.437,34.4,0.470,0.470,1.147,0.94
31,0.454,32.1,0.490,0.490,1.070,0.98
32,0.470,29.8,0.500,0.500,0.993,1.00
33,0.485,28.2,0.520,0.520,0.940,1.04
34,0.501,27.2,0.530,0.530,0.907,1.06
35,0.518,26.5,0.540,0.540,0.883,1.08
36,0.534,26.1,0.560,0.560,0.870,1.12
37,0.550,25.7,0.570,0.570,0.857,1.14
38,0.566,25.7,0.590,0.590,0.857,1.18
39,0.582,25.6,0.600,0.600,0.853,1.20
40,0.598,25.6,0.620,0.620,0.853,1.24
41,0.614,25.7,0.630,0.630,0.857,1.26
42,0.630,26.0,0.650,0.650,0.867,1.30
43,0.646,26.5,0.660,0.660,0.883,1.32
44,0.662,27.3,0.680,0.680,0.910,1.36
45,0.678,28.2,0.690,0.690,0.940,1.38
46,0.694,29.3,0.710,0.710,0.977,1.42
47,0.710,30.6,0.720,0.720,1.020,1.44
48,0.726,31.8,0.740,0.740,1.060,1.48
49,0.742,33.2,0.750,0.750,1.107,1.50
50,0.758,34.4,0.760,0.760,1.147,1.52
51,0.774,35.7,0.780,0.780,1.190,1.56
52,0.789,36.9,0.790,0.790,1.230,1.58
53,0.806,37.6,0.810,0.810,1.253,1.62
54,0.822,38.4,0.820,0.820,1.280,1.64
55,0.838,39.4,0.840,0.840,1.313,1.68
56,0.854,40.2,0.850,0.850,1.340,1.70
57,0.869,40.9,0.870,0.870,1.363,1.74
58,0.886,41.5,0.880,0.880,1.383,1.76
59,0.902,42.1,0.900,0.900,1.403,1.80
60,0.918,42.5,0.910,0.910,1.417,1.82
61,0.934,43.0,0.930,0.930,1.433,1.86
62,0.950,43.6,0.940,0.940,1.453,1.88
63,0.966,44.0,0.950,0.950,1.467,1.90
64,0.982,44.5,0.970,0.970,1.483,1.94
65,0.997,45.0,0.980,0.980,1.500,1.96
66,1.014,45.4,1.000,1.000,1.513,2.00
67,1.030,45.7,1.010,1.010,1.523,2.02
68,1.046,46.1,1.030,1.030,1.537,2.06
69,1.062,46.6,1.040,1.040,1.553,2.08
70,1.077,47.0,1.060,1.060,1.567,2.12
71,1.094,47.5,1.070,1.070,1.583,2.14
72,1.110,47.8,1.090,1.090,1.593,2.18
73,1.126,48.2,1.100,1.100,1.607,2.20
74,1.142,48.6,1.120,1.120,1.620,2.24
75,1.157,49.1,1.130,1.130,1.637,2.26
76,1.174,49.5,1.140,1.140,1.650,2.28
77,1.190,49.9,1.160,1.160,1.663,2.32
78,1.205,50.3,1.170,1.170,1.677,2.34
79,1.222,50.7,1.190,1.190,1.690,2.38
80,1.237,51.1,1.200,1.200,1.703,2.40
81,1.254,51.7,1.220,1.220,1.723,2.44
82,1.270,52.1,1.230,1.230,1.737,2.46
83,1.285,52.4,1.250,1.250,1.747,2.50
84,1.302,52.8,1.260,1.260,1.760,2.52
85,1.318,53.2,1.280,1.280,1.773,2.56
86,1.334,53.6,1.290,1.290,1.787,2.58
87,1.350,53.9,1.310,1.310,1.797,2.62
88,1.366,54.3,1.320,1.320,1.810,2.64
89,1.383,54.7,1.330,1.330,1.823,2.66
90,1.398,55.2,1.350,1.350,1.840,2.70
91,1.414,55.6,1.360,1.360,1.853,2.72
92,1.430,56.0,1.380,1.380,1.867,2.76
93,1.446,56.3,1.390,1.390,1.877,2.78
94,1.462,56.8,1.410,1.410,1.893,2.82
95,1.478,57.2,1.420,1.420,1.907,2.84
96,1.494,57.4,1.440,1.440,1.913,2.88
97,1.510,57.7,1.450,1.450,1.923,2.90
98,1.526,58.1,1.470,1.470,1.937,2.94
99,1.542,58.4,1.480,1.480,1.947,2.96
100,1.558,58.8,1.490,1.490,1.960,2.98
101,1.574,59.3,1.510,1.510,1.977,3.02
102,1.590,59.6,1.520,1.520,1.987,3.04
103,1.606,59.9,1.540,1.540,1.997,3.08
104,1.623,60.3,1.550,1.550,2.010,3.10
105,1.638,60.6,1.570,1.570,2.020,3.14
106,1.654,61.0,1.580,1.580,2.033,3.16
107,1.670,61.3,1.600,1.600,2.043,3.20
108,1.686,61.8,1.610,1.610,2.060,3.22
109,1.702,62.2,1.630,1.630,2.073,3.26
110,1.718,62.8,1.640,1.640,2.093,3.28
111,1.734,63.2,1.650,1.650,2.107,3.30
112,1.750,63.6,1.670,1.670,2.120,3.34
113,1.766,64.1,1.680,1.680,2.137,3.36
114,1.782,64.4,1.700,1.700,2.147,3.40
115,1.798,64.9,1.710,1.710,2.163,3.42
116,1.814,65.2,1.730,1.730,2.173,3.46
117,1.830,65.6,1.740,1.740,2.187,3.48
118,1.846,66.0,1.760,1.760,2.200,3.52
119,1.863,66.4,1.770,1.770,2.213,3.54
120,1.879,66.7,1.790,1.790,2.223,3.58
121,1.894,67.1,1.800,1.800,2.237,3.60
122,1.911,67.6,1.810,1.810,2.253,3.62
123,1.927,68.0,1.830,1.830,2.267,3.66
124,1.942,68.5,1.840,1.840,2.283,3.68
125,1.957,68.9,1.860,1.860,2.297,3.72
126,1.974,69.3,1.870,1.870,2.310,3.74
127,1.990,69.7,1.890,1.890,2.323,3.78
128,2.007,70.1,1.900,1.900,2.337,3.80
129,2.023,70.5,1.920,1.920,2.350,3.84
130,2.038,70.9,1.930,1.930,2.363,3.86
131,2.054,71.4,1.940,1.940,2.380,3.88
132,2.070,71.8,1.960,1.960,2.393,3.92
133,2.086,72.0,1.970,1.970,2.400,3.94
134,2.102,72.1,1.990,1.990,2.403,3.98
135,2.118,72.4,2.000,2.000,2.413,4.00
136,2.134,72.9,2.020,2.020,2.430,4.04
137,2.150,73.4,2.030,2.030,2.447,4.06
138,2.166,73.8,2.050,2.050,2.460,4.10
139,2.183,74.2,2.060,2.060,2.473,4.12
140,2.198,74.5,2.080,2.080,2.483,4.16
141,2.214,74.9,2.090,2.090,2.497,4.18
142,2.230,75.3,2.100,2.100,2.510,4.20
143,2.246,75.6,2.120,2.120,2.520,4.24
144,2.262,76.1,2.130,2.130,2.537,4.26
145,2.278,76.4,2.150,2.150,2.547,4.30
146,2.295,76.8,2.160,2.160,2.560,4.32
147,2.310,77.1,2.180,2.180,2.570,4.36
148,2.326,77.4,2.190,2.190,2.580,4.38
149,2.342,77.9,2.210,2.210,2.597,4.42
150,2.358,78.3,2.220,2.220,2.610,4.44
151,2.374,78.6,2.230,2.230,2.620,4.46
152,2.390,79.0,2.250,2.250,2.633,4.50
153,2.407,79.4,2.260,2.260,2.647,4.52
154,2.422,79.7,2.280,2.280,2.657,4.56
155,2.438,80.0,2.290,2.290,2.667,4.58
156,2.453,80.4,2.310,2.310,2.680,4.62
157,2.471,80.6,2.320,2.320,2.687,4.64
158,2.485,80.9,2.340,2.340,2.697,4.68
159,2.502,81.2,2.350,2.350,2.707,4.70
160,2.518,81.4,2.360,2.360,2.713,4.72
161,2.534,81.7,2.380,2.380,2.723,4.76
162,2.549,81.8,2.390,2.390,2.727,4.78
163,2.566,82.0,2.410,2.410,2.733,4.82
164,2.583,82.2,2.420,2.420,2.740,4.84
165,2.599,82.3,2.440,2.440,2.743,4.88
166,2.614,82.3,2.450,2.450,2.743,4.90
167,2.630,82.3,2.470,2.470,2.743,4.94
168,2.647,82.3,2.480,2.480,2.743,4.96
169,2.663,82.1,2.490,2.490,2.737,4.98
170,2.678,81.9,2.510,2.510,2.730,5.02
171,2.694,81.6,2.520,2.520,2.720,5.04
172,2.711,81.3,2.540,2.540,2.710,5.08
173,2.726,75.1,2.550,2.550,2.503,5.10
174,2.742,60.0,2.570,2.570,2.000,5.14
175,2.758,42.6,2.580,2.580,1.420,5.16
176,2.776,30.7,2.600,2.600,1.023,5.20
