일련번호,시간,하중,변위,테이블,강도,변형율
,[sec],[kgf],[mm],[mm],[kgf/mm²],[%]
1,0.000,0.0,0.000,0.000,0.000,0.00
2,0.000,7.2,0.000,0.070,0.240,0.00
3,0.011,8.8,0.080,0.080,0.293,0.16
4,0.027,10.4,0.100,0.100,0.347,0.20
5,0.044,11.9,0.110,0.110,0.397,0.22
6,0.060,13.5,0.130,0.130,0.450,0.26
7,0.076,14.3,0.140,0.140,0.477,0.28
8,0.092,16.2,0.160,0.160,0.540,0.32
9,0.107,17.9,0.170,0.170,0.597,0.34
10,0.123,19.5,0.190,0.190,0.650,0.38
11,0.140,21.0,0.200,0.200,0.700,0.40
12,0.155,22.4,0.220,0.220,0.747,0.44
13,0.172,23.5,0.230,0.230,0.783,0.46
14,0.187,24.3,0.250,0.250,0.810,0.50
15,0.203,24.5,0.260,0.260,0.817,0.52
16,0.219,24.5,0.270,0.270,0.817,0.54
17,0.236,24.4,0.290,0.290,0.813,0.58
18,0.251,24.4,0.300,0.300,0.813,0.60
19,0.268,24.8,0.320,0.320,0.827,0.64
20,0.284,25.2,0.330,0.330,0.840,0.66
21,0.299,25.9,0.350,0.350,0.863,0.70
22,0.316,27.0,0.360,0.360,0.900,0.72
23,0.331,28.1,0.380,0.380,0.937,0.76
24,0.348,29.3,0.390,0.390,0.977,0.78
25,0.364,30.4,0.410,0.410,1.013,0.82
26,0.379,31.5,0.420,0.420,1.050,0.84
27,0.396,32.4,0.440,0.440,1.080,0.88
28,0.411,33.3,0.450,0.450,1.110,0.90
29,0.427,34.0,0.470,0.470,1.133,0.94
30,0.444,34.0,0.480,0.480,1.133,0.96
31,0.460,31.8,0.490,0.490,1.060,0.98
32,0.476,29.4,0.510,0.510,0.980,1.02
33,0.492,28.1,0.520,0.520,0.937,1.04
34,0.508,26.8,0.540,0.540,0.893,1.08
35,0.524,26.1,0.550,0.550,0.870,1.10
36,0.540,25.6,0.570,0.570,0.853,1.14
37,0.556,25.3,0.580,0.580,0.843,1.16
38,0.572,25.1,0.600,0.600,0.837,1.20
39,0.588,25.0,0.610,0.610,0.833,1.22
40,0.604,25.0,0.630,0.630,0.833,1.26
41,0.620,25.2,0.640,0.640,0.840,1.28
42,0.635,25.4,0.660,0.660,0.847,1.32
43,0.651,25.8,0.670,0.670,0.860,1.34
44,0.667,26.3,0.690,0.690,0.877,1.38
45,0.683,27.0,0.700,0.700,0.900,1.40
46,0.700,27.8,0.710,0.710,0.927,1.42
47,0.716,28.4,0.730,0.730,0.947,1.46
48,0.732,29.8,0.740,0.740,0.993,1.48
49,0.748,31.2,0.760,0.760,1.040,1.52
50,0.764,32.4,0.770,0.770,1.080,1.54
51,0.780,33.7,0.790,0.790,1.123,1.58
52,0.796,34.7,0.800,0.800,1.157,1.60
53,0.812,35.7,0.820,0.820,1.190,1.64
54,0.828,36.6,0.830,0.830,1.220,1.66
55,0.844,37.4,0.850,0.850,1.247,1.70
56,0.860,38.0,0.860,0.860,1.267,1.72
57,0.876,38.6,0.880,0.880,1.287,1.76
58,0.892,39.0,0.890,0.890,1.300,1.78
59,0.908,39.5,0.910,0.910,1.317,1.82
60,0.924,39.8,0.920,0.920,1.327,1.84
61,0.940,40.4,0.930,0.930,1.347,1.86
62,0.956,40.7,0.950,0.950,1.357,1.90
63,0.972,41.0,0.960,0.960,1.367,1.92
64,0.988,41.3,0.980,0.980,1.377,1.96
65,1.004,41.7,0.990,0.990,1.390,1.98
66,1.020,42.0,1.010,1.010,1.400,2.02
67,1.035,42.3,1.020,1.020,1.410,2.04
68,1.051,42.8,1.040,1.040,1.427,2.08
69,1.067,43.0,1.050,1.050,1.433,2.10
70,1.084,43.5,1.070,1.070,1.450,2.14
71,1.100,43.9,1.080,1.080,1.463,2.16
72,1.115,44.2,1.100,1.100,1.473,2.20
73,1.131,44.5,1.110,1.110,1.483,2.22
74,1.148,45.0,1.120,1.120,1.500,2.24
75,1.164,45.3,1.140,1.140,1.510,2.28
76,1.180,45.7,1.150,1.150,1.523,2.30
77,1.196,46.1,1.170,1.170,1.537,2.34
78,1.212,46.5,1.180,1.180,1.550,2.36
79,1.228,46.9,1.200,1.200,1.563,2.40
80,1.243,47.2,1.210,1.210,1.573,2.42
81,1.260,47.6,1.230,1.230,1.587,2.46
82,1.276,48.0,1.240,1.240,1.600,2.48
83,1.291,48.4,1.260,1.260,1.613,2.52
84,1.308,48.8,1.270,1.270,1.627,2.54
85,1.324,49.2,1.280,1.280,1.640,2.56
86,1.340,49.6,1.300,1.300,1.653,2.60
87,1.355,49.6,1.310,1.310,1.653,2.62
88,1.372,50.1,1.330,1.330,1.670,2.66
89,1.388,50.6,1.340,1.340,1.687,2.68
90,1.404,51.1,1.360,1.360,1.703,2.72
91,1.420,51.5,1.370,1.370,1.717,2.74
92,1.436,52.0,1.390,1.390,1.733,2.78
93,1.451,52.4,1.400,1.400,1.747,2.80
94,1.468,52.8,1.420,1.420,1.760,2.84
95,1.484,53.2,1.430,1.430,1.773,2.86
96,1.500,53.5,1.450,1.450,1.783,2.90
97,1.516,53.9,1.460,1.460,1.797,2.92
98,1.532,54.2,1.470,1.470,1.807,2.94
99,1.548,54.5,1.490,1.490,1.817,2.98
100,1.564,54.7,1.500,1.500,1.823,3.00
101,1.580,55.0,1.520,1.520,1.833,3.04
102,1.596,55.5,1.530,1.530,1.850,3.06
103,1.612,56.0,1.550,1.550,1.867,3.10
104,1.628,56.5,1.560,1.560,1.883,3.12
105,1.644,56.9,1.580,1.580,1.897,3.16
106,1.660,57.3,1.590,1.590,1.910,3.18
107,1.676,57.7,1.610,1.610,1.923,3.22
108,1.692,58.1,1.620,1.620,1.937,3.24
109,1.708,58.5,1.630,1.630,1.950,3.26
110,1.723,58.9,1.650,1.650,1.963,3.30
111,1.740,59.4,1.660,1.660,1.980,3.32
112,1.756,59.8,1.680,1.680,1.993,3.36
113,1.772,60.1,1.690,1.690,2.003,3.38
114,1.788,60.6,1.710,1.710,2.020,3.42
115,1.804,61.0,1.720,1.720,2.033,3.44
116,1.821,61.4,1.740,1.740,2.047,3.48
117,1.837,61.8,1.750,1.750,2.060,3.50
118,1.851,62.1,1.760,1.760,2.070,3.52
119,1.868,62.6,1.780,1.780,2.087,3.56
120,1.883,63.0,1.790,1.790,2.100,3.58
121,1.900,63.4,1.810,1.810,2.113,3.62
122,1.917,63.8,1.820,1.820,2.127,3.64
123,1.932,64.2,1.840,1.840,2.140,3.68
124,1.949,64.6,1.850,1.850,2.153,3.70
125,1.964,65.0,1.870,1.870,2.167,3.74
126,1.980,65.5,1.880,1.880,2.183,3.76
127,1.997,66.0,1.900,1.900,2.200,3.80
128,2.012,66.4,1.910,1.910,2.213,3.82
129,2.028,66.9,1.920,1.920,2.230,3.84
130,2.044,67.2,1.940,1.940,2.240,3.88
131,2.061,67.6,1.950,1.950,2.253,3.90
132,2.076,67.9,1.970,1.970,2.263,3.94
133,2.092,68.3,1.980,1.980,2.277,3.96
134,2.109,68.7,2.000,2.000,2.290,4.00
135,2.124,69.1,2.010,2.010,2.303,4.02
136,2.140,69.5,2.030,2.030,2.317,4.06
137,2.157,69.9,2.040,2.040,2.330,4.08
138,2.173,70.2,2.050,2.050,2.340,4.10
139,2.189,70.7,2.070,2.070,2.357,4.14
140,2.204,70.9,2.080,2.080,2.363,4.16
141,2.220,71.4,2.100,2.100,2.380,4.20
142,2.236,71.8,2.110,2.110,2.393,4.22
143,2.253,72.4,2.130,2.130,2.413,4.26
144,2.269,72.8,2.140,2.140,2.427,4.28
145,2.285,73.3,2.160,2.160,2.443,4.32
146,2.301,73.7,2.170,2.170,2.457,4.34
147,2.316,74.1,2.190,2.190,2.470,4.38
148,2.332,74.5,2.200,2.200,2.483,4.40
149,2.348,75.0,2.210,2.210,2.500,4.42
150,2.364,75.4,2.230,2.230,2.513,4.46
151,2.380,75.8,2.240,2.240,2.527,4.48
152,2.396,76.2,2.260,2.260,2.540,4.52
153,2.413,76.4,2.270,2.270,2.547,4.54
154,2.428,76.7,2.290,2.290,2.557,4.58
155,2.444,77.3,2.300,2.300,2.577,4.60
156,2.460,77.8,2.320,2.320,2.593,4.64
157,2.476,78.2,2.330,2.330,2.607,4.66
158,2.492,78.6,2.340,2.340,2.620,4.68
159,2.508,79.1,2.360,2.360,2.637,4.72
160,2.524,79.4,2.370,2.370,2.647,4.74
161,2.540,79.8,2.390,2.390,2.660,4.78
162,2.556,80.2,2.400,2.400,2.673,4.80
163,2.572,80.6,2.420,2.420,2.687,4.84
164,2.588,80.9,2.430,2.430,2.697,4.86
165,2.604,81.3,2.450,2.450,2.710,4.90
166,2.620,81.6,2.460,2.460,2.720,4.92
167,2.636,82.0,2.470,2.470,2.733,4.94
168,2.652,82.4,2.490,2.490,2.747,4.98
169,2.668,82.7,2.500,2.500,2.757,5.00
170,2.684,83.0,2.520,2.520,2.767,5.04
171,2.700,83.4,2.530,2.530,2.780,5.06
172,2.716,83.8,2.550,2.550,2.793,5.10
173,2.732,84.1,2.560,2.560,2.803,5.12
174,2.748,84.4,2.580,2.580,2.813,5.16
175,2.764,84.7,2.590,2.590,2.823,5.18
176,2.780,84.9,2.600,2.600,2.830,5.20
177,2.796,85.2,2.620,2.620,2.840,5.24
178,2.812,85.5,2.630,2.630,2.850,5.26
179,2.827,85.6,2.650,2.650,2.853,5.30
180,2.845,85.9,2.660,2.660,2.863,5.32
181,2.860,86.1,2.680,2.680,2.870,5.36
182,2.876,86.1,2.690,2.690,2.870,5.38
183,2.892,86.1,2.710,2.710,2.870,5.42
184,2.909,86.1,2.720,2.720,2.870,5.44
185,2.925,86.1,2.730,2.730,2.870,5.46
186,2.941,85.9,2.750,2.750,2.863,5.50
187,2.956,78.8,2.760,2.760,2.627,5.52
188,2.972,56.9,2.780,2.780,1.897,5.56
189,2.988,40.2,2.790,2.790,1.340,5.58
