일련번호,시간,하중,변위,테이블,강도,변형율
,[sec],[kgf],[mm],[mm],[kgf/mm²],[%]
1,0.000,0.0,0.000,0.000,0.000,0.00
2,0.000,4.5,0.000,0.060,0.150,0.00
3,0.011,5.4,0.080,0.080,0.180,0.16
4,0.027,6.3,0.090,0.090,0.210,0.18
5,0.042,7.3,0.110,0.110,0.243,0.22
6,0.058,8.2,0.120,0.120,0.273,0.24
7,0.074,9.1,0.140,0.140,0.303,0.28
8,0.090,10.0,0.150,0.150,0.333,0.30
9,0.106,10.9,0.170,0.170,0.363,0.34
10,0.123,11.8,0.180,0.180,0.393,0.36
11,0.139,12.2,0.200,0.200,0.407,0.40
12,0.155,13.0,0.210,0.210,0.433,0.42
13,0.171,14.0,0.230,0.230,0.467,0.46
14,0.186,14.8,0.240,0.240,0.493,0.48
15,0.203,15.6,0.250,0.250,0.520,0.50
16,0.218,16.2,0.270,0.270,0.540,0.54
17,0.234,16.7,0.280,0.280,0.557,0.56
18,0.250,17.2,0.300,0.300,0.573,0.60
19,0.266,17.7,0.310,0.310,0.590,0.62
20,0.282,18.0,0.330,0.330,0.600,0.66
21,0.298,18.3,0.340,0.340,0.610,0.68
22,0.314,18.6,0.360,0.360,0.620,0.72
23,0.330,18.8,0.370,0.370,0.627,0.74
24,0.346,18.8,0.390,0.390,0.627,0.78
25,0.362,19.0,0.400,0.400,0.633,0.80
26,0.378,19.3,0.420,0.420,0.643,0.84
27,0.394,19.5,0.430,0.430,0.650,0.86
28,0.411,19.7,0.450,0.450,0.657,0.90
29,0.426,19.9,0.460,0.460,0.663,0.92
30,0.442,20.1,0.480,0.480,0.670,0.96
31,0.458,20.3,0.490,0.490,0.677,0.98
32,0.474,20.6,0.500,0.500,0.687,1.00
33,0.490,20.9,0.520,0.520,0.697,1.04
34,0.506,21.3,0.530,0.530,0.710,1.06
35,0.522,21.7,0.550,0.550,0.723,1.10
36,0.538,22.1,0.560,0.560,0.737,1.12
37,0.554,22.4,0.580,0.580,0.747,1.16
38,0.570,22.8,0.590,0.590,0.760,1.18
39,0.586,23.2,0.610,0.610,0.773,1.22
40,0.602,23.5,0.620,0.620,0.783,1.24
41,0.618,23.8,0.640,0.640,0.793,1.28
42,0.634,24.1,0.650,0.650,0.803,1.30
43,0.650,24.4,0.670,0.670,0.813,1.34
44,0.665,24.7,0.680,0.680,0.823,1.36
45,0.681,24.9,0.700,0.700,0.830,1.40
46,0.699,25.1,0.710,0.710,0.837,1.42
47,0.714,25.3,0.720,0.720,0.843,1.44
48,0.730,25.4,0.740,0.740,0.847,1.48
49,0.746,25.4,0.750,0.750,0.847,1.50
50,0.762,25.4,0.770,0.770,0.847,1.54
51,0.778,25.4,0.780,0.780,0.847,1.56
52,0.794,25.8,0.800,0.800,0.860,1.60
53,0.810,26.2,0.810,0.810,0.873,1.62
54,0.826,26.3,0.830,0.830,0.877,1.66
55,0.843,26.3,0.840,0.840,0.877,1.68
56,0.859,26.0,0.860,0.860,0.867,1.72
57,0.875,25.6,0.870,0.870,0.853,1.74
58,0.891,25.2,0.890,0.890,0.840,1.78
59,0.906,24.7,0.900,0.900,0.823,1.80
60,0.922,24.3,0.910,0.910,0.810,1.82
61,0.938,24.0,0.930,0.930,0.800,1.86
62,0.954,23.9,0.940,0.940,0.797,1.88
63,0.970,23.9,0.960,0.960,0.797,1.92
64,0.986,23.9,0.970,0.970,0.797,1.94
65,1.002,23.7,0.990,0.990,0.790,1.98
66,1.019,23.7,1.000,1.000,0.790,2.00
67,1.034,23.7,1.020,1.020,0.790,2.04
68,1.050,23.7,1.030,1.030,0.790,2.06
69,1.067,23.9,1.050,1.050,0.797,2.10
70,1.083,24.1,1.060,1.060,0.803,2.12
71,1.099,24.2,1.080,1.080,0.807,2.16
72,1.115,24.5,1.090,1.090,0.817,2.18
73,1.131,24.8,1.100,1.100,0.827,2.20
74,1.147,25.2,1.120,1.120,0.840,2.24
75,1.163,25.8,1.130,1.130,0.860,2.26
76,1.178,26.4,1.150,1.150,0.880,2.30
77,1.195,26.8,1.160,1.160,0.893,2.32
78,1.211,27.5,1.180,1.180,0.917,2.36
79,1.227,28.2,1.190,1.190,0.940,2.38
80,1.243,28.8,1.210,1.210,0.960,2.42
81,1.259,29.3,1.220,1.220,0.977,2.44
82,1.275,29.8,1.240,1.240,0.993,2.48
83,1.291,30.0,1.250,1.250,1.000,2.50
84,1.307,30.2,1.270,1.270,1.007,2.54
85,1.322,30.4,1.280,1.280,1.013,2.56
86,1.338,30.4,1.290,1.290,1.013,2.58
87,1.355,30.5,1.310,1.310,1.017,2.62
88,1.371,30.5,1.320,1.320,1.017,2.64
89,1.386,30.6,1.340,1.340,1.020,2.68
90,1.403,30.6,1.350,1.350,1.020,2.70
91,1.419,31.0,1.370,1.370,1.033,2.74
92,1.435,31.0,1.380,1.380,1.033,2.76
93,1.450,31.2,1.400,1.400,1.040,2.80
94,1.467,31.3,1.410,1.410,1.043,2.82
95,1.482,31.5,1.430,1.430,1.050,2.86
96,1.499,31.8,1.440,1.440,1.060,2.88
97,1.514,32.0,1.450,1.450,1.067,2.90
98,1.530,32.3,1.470,1.470,1.077,2.94
99,1.547,32.4,1.480,1.480,1.080,2.96
100,1.563,32.7,1.500,1.500,1.090,3.00
101,1.579,33.0,1.510,1.510,1.100,3.02
102,1.595,33.2,1.530,1.530,1.107,3.06
103,1.611,33.5,1.540,1.540,1.117,3.08
104,1.627,33.7,1.560,1.560,1.123,3.12
105,1.643,34.0,1.570,1.570,1.133,3.14
106,1.659,34.4,1.590,1.590,1.147,3.18
107,1.675,34.7,1.600,1.600,1.157,3.20
108,1.691,35.0,1.610,1.610,1.167,3.22
109,1.706,35.3,1.630,1.630,1.177,3.26
110,1.722,35.5,1.640,1.640,1.183,3.28
111,1.739,35.7,1.660,1.660,1.190,3.32
112,1.755,36.0,1.670,1.670,1.200,3.34
113,1.771,36.2,1.690,1.690,1.207,3.38
114,1.787,36.5,1.700,1.700,1.217,3.40
115,1.803,36.8,1.720,1.720,1.227,3.44
116,1.819,37.0,1.730,1.730,1.233,3.46
117,1.835,37.1,1.750,1.750,1.237,3.50
118,1.851,37.2,1.760,1.760,1.240,3.52
119,1.867,37.6,1.770,1.770,1.253,3.54
120,1.883,37.9,1.790,1.790,1.263,3.58
121,1.899,38.2,1.800,1.800,1.273,3.60
122,1.915,38.5,1.820,1.820,1.283,3.64
123,1.931,38.8,1.830,1.830,1.293,3.66
124,1.947,39.0,1.850,1.850,1.300,3.70
125,1.963,39.2,1.860,1.860,1.307,3.72
126,1.979,39.4,1.880,1.880,1.313,3.76
127,1.995,39.6,1.890,1.890,1.320,3.78
128,2.011,39.9,1.910,1.910,1.330,3.82
129,2.027,40.1,1.920,1.920,1.337,3.84
130,2.043,40.3,1.930,1.930,1.343,3.86
131,2.059,40.7,1.950,1.950,1.357,3.90
132,2.075,40.9,1.960,1.960,1.363,3.92
133,2.091,41.1,1.980,1.980,1.370,3.96
134,2.107,41.4,1.990,1.990,1.380,3.98
135,2.123,41.6,2.010,2.010,1.387,4.02
136,2.139,41.8,2.020,2.020,1.393,4.04
137,2.155,42.1,2.040,2.040,1.403,4.08
138,2.171,42.3,2.050,2.050,1.410,4.10
139,2.187,42.5,2.070,2.070,1.417,4.14
140,2.202,42.8,2.080,2.080,1.427,4.16
141,2.219,42.9,2.090,2.090,1.430,4.18
142,2.236,43.1,2.110,2.110,1.437,4.22
143,2.251,43.4,2.120,2.120,1.447,4.24
144,2.267,43.7,2.140,2.140,1.457,4.28
145,2.283,43.9,2.150,2.150,1.463,4.30
146,2.299,44.1,2.170,2.170,1.470,4.34
147,2.315,44.3,2.180,2.180,1.477,4.36
148,2.331,44.4,2.200,2.200,1.480,4.40
149,2.347,44.7,2.210,2.210,1.490,4.42
150,2.363,44.9,2.220,2.220,1.497,4.44
151,2.379,45.0,2.240,2.240,1.500,4.48
152,2.395,45.2,2.250,2.250,1.507,4.50
153,2.411,45.4,2.270,2.270,1.513,4.54
154,2.427,45.7,2.280,2.280,1.523,4.56
155,2.443,45.9,2.300,2.300,1.530,4.60
156,2.459,46.1,2.310,2.310,1.537,4.62
157,2.475,46.2,2.330,2.330,1.540,4.66
158,2.491,46.4,2.340,2.340,1.547,4.68
159,2.507,46.8,2.350,2.350,1.560,4.70
160,2.523,47.1,2.370,2.370,1.570,4.74
161,2.540,47.4,2.380,2.380,1.580,4.76
162,2.556,47.7,2.400,2.400,1.590,4.80
163,2.570,48.0,2.410,2.410,1.600,4.82
164,2.587,48.3,2.430,2.430,1.610,4.86
165,2.603,48.6,2.440,2.440,1.620,4.88
166,2.619,48.8,2.460,2.460,1.627,4.92
167,2.635,49.1,2.470,2.470,1.637,4.94
168,2.651,49.4,2.480,2.480,1.647,4.96
169,2.667,49.7,2.500,2.500,1.657,5.00
170,2.683,49.8,2.510,2.510,1.660,5.02
171,2.700,50.0,2.530,2.530,1.667,5.06
172,2.715,50.4,2.540,2.540,1.680,5.08
173,2.731,50.7,2.560,2.560,1.690,5.12
174,2.748,51.1,2.570,2.570,1.703,5.14
175,2.763,51.4,2.590,2.590,1.713,5.18
176,2.779,51.8,2.600,2.600,1.727,5.20
177,2.795,52.1,2.610,2.610,1.737,5.22
178,2.812,52.3,2.630,2.630,1.743,5.26
179,2.827,52.6,2.640,2.640,1.753,5.28
180,2.843,52.8,2.660,2.660,1.760,5.32
181,2.859,53.1,2.670,2.670,1.770,5.34
182,2.875,53.5,2.690,2.690,1.783,5.38
183,2.891,53.7,2.700,2.700,1.790,5.40
184,2.907,54.1,2.720,2.720,1.803,5.44
185,2.923,54.4,2.730,2.730,1.813,5.46
186,2.939,54.8,2.740,2.740,1.827,5.48
187,2.955,55.0,2.760,2.760,1.833,5.52
188,2.971,55.4,2.770,2.770,1.847,5.54
189,2.987,55.7,2.790,2.790,1.857,5.58
190,3.003,56.1,2.800,2.800,1.870,5.60
191,3.019,56.4,2.820,2.820,1.880,5.64
192,3.035,56.7,2.830,2.830,1.890,5.66
193,3.051,57.0,2.850,2.850,1.900,5.70
194,3.067,57.3,2.860,2.860,1.910,5.72
195,3.083,57.6,2.870,2.870,1.920,5.74
196,3.099,58.0,2.890,2.890,1.933,5.78
197,3.116,58.1,2.900,2.900,1.937,5.80
198,3.132,58.5,2.920,2.920,1.950,5.84
199,3.147,58.8,2.930,2.930,1.960,5.86
200,3.162,59.0,2.950,2.950,1.967,5.90
201,3.179,59.3,2.960,2.960,1.977,5.92
202,3.195,59.5,2.970,2.970,1.983,5.94
203,3.211,59.8,2.990,2.990,1.993,5.98
204,3.226,59.9,3.000,3.000,1.997,6.00
205,3.243,60.1,3.020,3.020,2.003,6.04
206,3.260,60.4,3.030,3.030,2.013,6.06
207,3.276,60.6,3.050,3.050,2.020,6.10
208,3.292,60.8,3.060,3.060,2.027,6.12
209,3.308,61.0,3.080,3.080,2.033,6.16
210,3.323,61.1,3.090,3.090,2.037,6.18
211,3.340,61.3,3.100,3.100,2.043,6.20
212,3.355,61.4,3.120,3.120,2.047,6.24
213,3.371,61.6,3.130,3.130,2.053,6.26
214,3.388,61.8,3.150,3.150,2.060,6.30
215,3.403,61.9,3.160,3.160,2.063,6.32
216,3.420,61.9,3.180,3.180,2.063,6.36
217,3.435,62.1,3.190,3.190,2.070,6.38
218,3.452,62.1,3.210,3.210,2.070,6.42
219,3.467,62.1,3.220,3.220,2.070,6.44
220,3.484,62.2,3.230,3.230,2.073,6.46
221,3.500,62.2,3.250,3.250,2.073,6.50
222,3.516,62.1,3.260,3.260,2.070,6.52
223,3.531,62.0,3.280,3.280,2.067,6.56
224,3.548,61.7,3.290,3.290,2.057,6.58
225,3.564,61.7,3.310,3.310,2.057,6.62
226,3.580,61.5,3.320,3.320,2.050,6.64
227,3.595,61.3,3.330,3.330,2.043,6.66
228,3.611,61.2,3.350,3.350,2.040,6.70
229,3.628,61.0,3.360,3.360,2.033,6.72
230,3.643,60.7,3.380,3.380,2.023,6.76
231,3.659,60.4,3.390,3.390,2.013,6.78
232,3.675,60.1,3.410,3.410,2.003,6.82
233,3.691,59.8,3.420,3.420,1.993,6.84
234,3.708,59.4,3.430,3.430,1.980,6.86
235,3.723,59.0,3.450,3.450,1.967,6.90
236,3.739,58.6,3.460,3.460,1.953,6.92
237,3.756,58.4,3.480,3.480,1.947,6.96
238,3.771,57.1,3.490,3.490,1.903,6.98
239,3.788,46.9,3.510,3.510,1.563,7.02
240,3.804,33.1,3.520,3.520,1.103,7.04
241,3.819,23.8,3.540,3.540,0.793,7.08
