일련번호,시간,하중,변위,테이블,강도,변형율
,[sec],[kgf],[mm],[mm],[kgf/mm²],[%]
1,0.000,0.0,0.000,0.000,0.000,0.00
2,0.000,10.0,0.000,0.070,0.333,0.00
3,0.010,10.0,0.080,0.080,0.333,0.16
4,0.026,11.0,0.090,0.090,0.367,0.18
5,0.042,12.0,0.110,0.110,0.400,0.22
6,0.059,12.0,0.120,0.120,0.400,0.24
7,0.075,13.0,0.140,0.140,0.433,0.28
8,0.091,13.0,0.150,0.150,0.433,0.30
9,0.107,14.0,0.170,0.170,0.467,0.34
10,0.123,14.0,0.180,0.180,0.467,0.36
11,0.139,15.0,0.200,0.200,0.500,0.40
12,0.154,15.0,0.210,0.210,0.500,0.42
13,0.170,16.0,0.230,0.230,0.533,0.46
14,0.186,16.0,0.240,0.240,0.533,0.48
15,0.202,17.0,0.260,0.260,0.567,0.52
16,0.218,17.0,0.270,0.270,0.567,0.54
17,0.234,18.0,0.290,0.290,0.600,0.58
18,0.251,19.0,0.300,0.300,0.633,0.60
19,0.267,19.0,0.320,0.320,0.633,0.64
20,0.282,20.0,0.330,0.330,0.667,0.66
21,0.299,20.0,0.350,0.350,0.667,0.70
22,0.315,21.0,0.360,0.360,0.700,0.72
23,0.330,21.0,0.370,0.370,0.700,0.74
24,0.346,21.0,0.390,0.390,0.700,0.78
25,0.363,21.0,0.400,0.400,0.700,0.80
26,0.378,21.0,0.420,0.420,0.700,0.84
27,0.394,21.0,0.430,0.430,0.700,0.86
28,0.411,21.0,0.450,0.450,0.700,0.90
29,0.427,20.0,0.460,0.460,0.667,0.92
30,0.442,20.0,0.480,0.480,0.667,0.96
31,0.459,20.0,0.490,0.490,0.667,0.98
32,0.475,20.0,0.510,0.510,0.667,1.02
33,0.491,20.0,0.520,0.520,0.667,1.04
34,0.506,20.0,0.540,0.540,0.667,1.08
35,0.522,20.0,0.550,0.550,0.667,1.10
36,0.538,20.0,0.570,0.570,0.667,1.14
37,0.554,20.0,0.580,0.580,0.667,1.16
38,0.571,20.0,0.590,0.590,0.667,1.18
39,0.586,20.0,0.610,0.610,0.667,1.22
40,0.603,20.0,0.620,0.620,0.667,1.24
41,0.619,20.0,0.640,0.640,0.667,1.28
42,0.634,20.0,0.650,0.650,0.667,1.30
43,0.651,21.0,0.670,0.670,0.700,1.34
44,0.666,21.0,0.680,0.680,0.700,1.36
45,0.683,22.0,0.700,0.700,0.733,1.40
46,0.698,23.0,0.710,0.710,0.767,1.42
47,0.715,23.0,0.730,0.730,0.767,1.46
48,0.731,24.0,0.740,0.740,0.800,1.48
49,0.746,25.0,0.760,0.760,0.833,1.52
50,0.762,26.0,0.770,0.770,0.867,1.54
51,0.779,26.0,0.790,0.790,0.867,1.58
52,0.795,27.0,0.800,0.800,0.900,1.60
53,0.811,28.0,0.810,0.810,0.933,1.62
54,0.827,29.0,0.830,0.830,0.967,1.66
55,0.843,30.0,0.840,0.840,1.000,1.68
56,0.859,30.0,0.860,0.860,1.000,1.72
57,0.874,31.0,0.870,0.870,1.033,1.74
58,0.890,32.0,0.890,0.890,1.067,1.78
59,0.907,33.0,0.900,0.900,1.100,1.80
60,0.923,33.0,0.920,0.920,1.100,1.84
61,0.938,34.0,0.930,0.930,1.133,1.86
62,0.954,35.0,0.950,0.950,1.167,1.90
63,0.970,35.0,0.960,0.960,1.167,1.92
64,0.987,36.0,0.980,0.980,1.200,1.96
65,1.003,36.0,0.990,0.990,1.200,1.98
66,1.019,37.0,1.000,1.000,1.233,2.00
67,1.034,37.0,1.020,1.020,1.233,2.04
68,1.051,38.0,1.030,1.030,1.267,2.06
69,1.066,38.0,1.050,1.050,1.267,2.10
70,1.083,39.0,1.060,1.060,1.300,2.12
71,1.099,39.0,1.080,1.080,1.300,2.16
72,1.114,40.0,1.090,1.090,1.333,2.18
73,1.130,40.0,1.110,1.110,1.333,2.22
74,1.147,40.0,1.120,1.120,1.333,2.24
75,1.163,41.0,1.140,1.140,1.367,2.28
76,1.179,41.0,1.150,1.150,1.367,2.30
77,1.194,41.0,1.170,1.170,1.367,2.34
78,1.211,42.0,1.180,1.180,1.400,2.36
79,1.227,42.0,1.190,1.190,1.400,2.38
80,1.243,42.0,1.210,1.210,1.400,2.42
81,1.259,42.0,1.220,1.220,1.400,2.44
82,1.275,43.0,1.240,1.240,1.433,2.48
83,1.290,43.0,1.250,1.250,1.433,2.50
84,1.307,43.0,1.270,1.270,1.433,2.54
85,1.323,43.0,1.280,1.280,1.433,2.56
86,1.338,44.0,1.300,1.300,1.467,2.60
87,1.355,44.0,1.310,1.310,1.467,2.62
88,1.371,44.0,1.330,1.330,1.467,2.66
89,1.387,44.0,1.340,1.340,1.467,2.68
90,1.403,44.0,1.350,1.350,1.467,2.70
91,1.419,44.0,1.370,1.370,1.467,2.74
92,1.435,44.0,1.380,1.380,1.467,2.76
93,1.451,44.0,1.400,1.400,1.467,2.80
94,1.467,44.0,1.410,1.410,1.467,2.82
95,1.483,44.0,1.430,1.430,1.467,2.86
96,1.499,44.0,1.440,1.440,1.467,2.88
97,1.515,44.0,1.460,1.460,1.467,2.92
98,1.531,44.0,1.470,1.470,1.467,2.94
99,1.547,44.0,1.490,1.490,1.467,2.98
100,1.563,44.0,1.500,1.500,1.467,3.00
101,1.579,43.0,1.510,1.510,1.433,3.02
102,1.595,43.0,1.530,1.530,1.433,3.06
103,1.611,43.0,1.540,1.540,1.433,3.08
104,1.627,43.0,1.560,1.560,1.433,3.12
105,1.643,42.0,1.570,1.570,1.400,3.14
106,1.659,42.0,1.590,1.590,1.400,3.18
107,1.675,42.0,1.600,1.600,1.400,3.20
108,1.691,42.0,1.620,1.620,1.400,3.24
109,1.707,42.0,1.630,1.630,1.400,3.26
110,1.723,42.0,1.650,1.650,1.400,3.30
111,1.739,42.0,1.660,1.660,1.400,3.32
112,1.755,41.0,1.670,1.670,1.367,3.34
113,1.770,41.0,1.690,1.690,1.367,3.38
114,1.787,41.0,1.700,1.700,1.367,3.40
115,1.803,41.0,1.720,1.720,1.367,3.44
116,1.819,41.0,1.730,1.730,1.367,3.46
117,1.835,41.0,1.750,1.750,1.367,3.50
118,1.850,40.0,1.760,1.760,1.333,3.52
119,1.867,40.0,1.780,1.780,1.333,3.56
120,1.883,40.0,1.790,1.790,1.333,3.58
121,1.899,40.0,1.810,1.810,1.333,3.62
122,1.914,40.0,1.820,1.820,1.333,3.64
123,1.931,40.0,1.830,1.830,1.333,3.66
124,1.947,39.0,1.850,1.850,1.300,3.70
125,1.962,39.0,1.860,1.860,1.300,3.72
126,1.979,39.0,1.880,1.880,1.300,3.76
127,1.995,39.0,1.890,1.890,1.300,3.78
128,2.011,39.0,1.910,1.910,1.300,3.82
129,2.026,39.0,1.920,1.920,1.300,3.84
130,2.043,38.0,1.940,1.940,1.267,3.88
131,2.059,38.0,1.950,1.950,1.267,3.90
132,2.075,38.0,1.960,1.960,1.267,3.92
133,2.091,38.0,1.980,1.980,1.267,3.96
134,2.106,37.0,1.990,1.990,1.233,3.98
135,2.123,37.0,2.010,2.010,1.233,4.02
136,2.138,37.0,2.020,2.020,1.233,4.04
137,2.155,36.0,2.040,2.040,1.200,4.08
138,2.172,36.0,2.050,2.050,1.200,4.10
139,2.187,35.0,2.070,2.070,1.167,4.14
140,2.204,35.0,2.080,2.080,1.167,4.16
141,2.219,34.0,2.100,2.100,1.133,4.20
142,2.235,33.0,2.110,2.110,1.100,4.22
143,2.250,32.0,2.120,2.120,1.067,4.24
144,2.267,31.0,2.140,2.140,1.033,4.28
145,2.282,30.0,2.150,2.150,1.000,4.30
146,2.299,27.0,2.170,2.170,0.900,4.34
147,2.314,22.0,2.180,2.180,0.733,4.36
