일련번호,시간,하중,변위,테이블,강도,변형율
,[sec],[kgf],[mm],[mm],[kgf/mm²],[%]
1,0.000,0.0,0.000,0.000,0.000,0.00
2,0.000,11.0,0.000,0.070,0.367,0.00
3,0.011,12.0,0.080,0.080,0.400,0.16
4,0.027,13.0,0.100,0.100,0.433,0.20
5,0.043,14.0,0.110,0.110,0.467,0.22
6,0.059,15.0,0.130,0.130,0.500,0.26
7,0.075,16.0,0.140,0.140,0.533,0.28
8,0.090,17.0,0.160,0.160,0.567,0.32
9,0.105,18.0,0.170,0.170,0.600,0.34
10,0.122,19.0,0.190,0.190,0.633,0.38
11,0.138,19.0,0.200,0.200,0.633,0.40
12,0.154,20.0,0.220,0.220,0.667,0.44
13,0.171,21.0,0.230,0.230,0.700,0.46
14,0.186,22.0,0.250,0.250,0.733,0.50
15,0.202,23.0,0.260,0.260,0.767,0.52
16,0.218,23.0,0.280,0.280,0.767,0.56
17,0.234,24.0,0.290,0.290,0.800,0.58
18,0.250,24.0,0.310,0.310,0.800,0.62
19,0.266,24.0,0.320,0.320,0.800,0.64
20,0.282,25.0,0.330,0.330,0.833,0.66
21,0.298,25.0,0.350,0.350,0.833,0.70
22,0.315,26.0,0.360,0.360,0.867,0.72
23,0.331,26.0,0.380,0.380,0.867,0.76
24,0.346,26.0,0.390,0.390,0.867,0.78
25,0.362,26.0,0.410,0.410,0.867,0.82
26,0.378,27.0,0.420,0.420,0.900,0.84
27,0.395,27.0,0.440,0.440,0.900,0.88
28,0.410,28.0,0.450,0.450,0.933,0.90
29,0.426,29.0,0.470,0.470,0.967,0.94
30,0.442,29.0,0.480,0.480,0.967,0.96
31,0.459,29.0,0.500,0.500,0.967,1.00
32,0.475,29.0,0.510,0.510,0.967,1.02
33,0.491,29.0,0.530,0.530,0.967,1.06
34,0.506,28.0,0.540,0.540,0.933,1.08
35,0.522,28.0,0.550,0.550,0.933,1.10
36,0.538,28.0,0.570,0.570,0.933,1.14
37,0.554,27.0,0.580,0.580,0.900,1.16
38,0.570,27.0,0.600,0.600,0.900,1.20
39,0.586,27.0,0.610,0.610,0.900,1.22
40,0.603,27.0,0.630,0.630,0.900,1.26
41,0.618,27.0,0.640,0.640,0.900,1.28
42,0.634,27.0,0.660,0.660,0.900,1.32
43,0.651,27.0,0.670,0.670,0.900,1.34
44,0.667,27.0,0.690,0.690,0.900,1.38
45,0.683,27.0,0.700,0.700,0.900,1.40
46,0.699,27.0,0.720,0.720,0.900,1.44
47,0.714,28.0,0.730,0.730,0.933,1.46
48,0.730,29.0,0.750,0.750,0.967,1.50
49,0.747,29.0,0.760,0.760,0.967,1.52
50,0.762,30.0,0.770,0.770,1.000,1.54
51,0.779,31.0,0.790,0.790,1.033,1.58
52,0.795,32.0,0.800,0.800,1.067,1.60
53,0.811,32.0,0.820,0.820,1.067,1.64
54,0.826,33.0,0.830,0.830,1.100,1.66
55,0.842,34.0,0.850,0.850,1.133,1.70
56,0.859,35.0,0.860,0.860,1.167,1.72
57,0.874,35.0,0.880,0.880,1.167,1.76
58,0.891,36.0,0.890,0.890,1.200,1.78
59,0.906,37.0,0.910,0.910,1.233,1.82
60,0.923,38.0,0.920,0.920,1.267,1.84
61,0.939,38.0,0.940,0.940,1.267,1.88
62,0.954,39.0,0.950,0.950,1.300,1.90
63,0.971,40.0,0.960,0.960,1.333,1.92
64,0.986,40.0,0.980,0.980,1.333,1.96
65,1.003,41.0,0.990,0.990,1.367,1.98
66,1.018,41.0,1.010,1.010,1.367,2.02
67,1.034,42.0,1.020,1.020,1.400,2.04
68,1.050,43.0,1.040,1.040,1.433,2.08
69,1.066,43.0,1.050,1.050,1.433,2.10
70,1.082,43.0,1.070,1.070,1.433,2.14
71,1.098,44.0,1.080,1.080,1.467,2.16
72,1.114,44.0,1.100,1.100,1.467,2.20
73,1.131,44.0,1.110,1.110,1.467,2.22
74,1.147,45.0,1.120,1.120,1.500,2.24
75,1.163,45.0,1.140,1.140,1.500,2.28
76,1.179,45.0,1.150,1.150,1.500,2.30
77,1.195,46.0,1.170,1.170,1.533,2.34
78,1.211,46.0,1.180,1.180,1.533,2.36
79,1.227,46.0,1.200,1.200,1.533,2.40
80,1.243,47.0,1.210,1.210,1.567,2.42
81,1.258,47.0,1.230,1.230,1.567,2.46
82,1.274,47.0,1.240,1.240,1.567,2.48
83,1.291,47.0,1.260,1.260,1.567,2.52
84,1.307,47.0,1.270,1.270,1.567,2.54
85,1.323,48.0,1.290,1.290,1.600,2.58
86,1.339,48.0,1.300,1.300,1.600,2.60
87,1.355,48.0,1.310,1.310,1.600,2.62
88,1.371,49.0,1.330,1.330,1.633,2.66
89,1.387,49.0,1.340,1.340,1.633,2.68
90,1.403,49.0,1.360,1.360,1.633,2.72
91,1.418,50.0,1.370,1.370,1.667,2.74
92,1.435,50.0,1.390,1.390,1.667,2.78
93,1.451,50.0,1.400,1.400,1.667,2.80
94,1.467,50.0,1.420,1.420,1.667,2.84
95,1.482,51.0,1.430,1.430,1.700,2.86
96,1.499,51.0,1.450,1.450,1.700,2.90
97,1.514,51.0,1.460,1.460,1.700,2.92
98,1.531,51.0,1.470,1.470,1.700,2.94
99,1.546,52.0,1.490,1.490,1.733,2.98
100,1.562,52.0,1.500,1.500,1.733,3.00
101,1.579,52.0,1.520,1.520,1.733,3.04
102,1.595,52.0,1.530,1.530,1.733,3.06
103,1.611,53.0,1.550,1.550,1.767,3.10
104,1.627,53.0,1.560,1.560,1.767,3.12
105,1.643,53.0,1.580,1.580,1.767,3.16
106,1.658,53.0,1.590,1.590,1.767,3.18
107,1.674,53.0,1.610,1.610,1.767,3.22
108,1.691,53.0,1.620,1.620,1.767,3.24
109,1.707,54.0,1.630,1.630,1.800,3.26
110,1.723,54.0,1.650,1.650,1.800,3.30
111,1.739,54.0,1.660,1.660,1.800,3.32
112,1.754,54.0,1.680,1.680,1.800,3.36
113,1.771,54.0,1.690,1.690,1.800,3.38
114,1.787,54.0,1.710,1.710,1.800,3.42
115,1.803,54.0,1.720,1.720,1.800,3.44
116,1.819,54.0,1.740,1.740,1.800,3.48
117,1.835,54.0,1.750,1.750,1.800,3.50
118,1.851,54.0,1.770,1.770,1.800,3.54
119,1.867,54.0,1.780,1.780,1.800,3.56
120,1.883,54.0,1.790,1.790,1.800,3.58
121,1.899,54.0,1.810,1.810,1.800,3.62
122,1.915,54.0,1.820,1.820,1.800,3.64
123,1.931,54.0,1.840,1.840,1.800,3.68
124,1.947,54.0,1.850,1.850,1.800,3.70
125,1.963,54.0,1.870,1.870,1.800,3.74
126,1.979,54.0,1.880,1.880,1.800,3.76
127,1.995,53.0,1.900,1.900,1.767,3.80
128,2.011,53.0,1.910,1.910,1.767,3.82
129,2.026,53.0,1.930,1.930,1.767,3.86
130,2.043,53.0,1.940,1.940,1.767,3.88
131,2.060,52.0,1.950,1.950,1.733,3.90
132,2.075,52.0,1.970,1.970,1.733,3.94
133,2.091,52.0,1.980,1.980,1.733,3.96
134,2.107,52.0,2.000,2.000,1.733,4.00
135,2.123,51.0,2.010,2.010,1.700,4.02
136,2.139,51.0,2.030,2.030,1.700,4.06
137,2.155,51.0,2.040,2.040,1.700,4.08
138,2.171,51.0,2.060,2.060,1.700,4.12
139,2.187,50.0,2.070,2.070,1.667,4.14
140,2.203,50.0,2.080,2.080,1.667,4.16
141,2.218,50.0,2.100,2.100,1.667,4.20
142,2.235,50.0,2.110,2.110,1.667,4.22
143,2.251,50.0,2.130,2.130,1.667,4.26
144,2.267,50.0,2.140,2.140,1.667,4.28
145,2.283,50.0,2.160,2.160,1.667,4.32
146,2.299,49.0,2.170,2.170,1.633,4.34
147,2.315,49.0,2.190,2.190,1.633,4.38
148,2.331,49.0,2.200,2.200,1.633,4.40
149,2.347,49.0,2.210,2.210,1.633,4.42
150,2.363,49.0,2.230,2.230,1.633,4.46
151,2.379,49.0,2.240,2.240,1.633,4.48
152,2.395,49.0,2.260,2.260,1.633,4.52
153,2.411,48.0,2.270,2.270,1.600,4.54
154,2.427,48.0,2.290,2.290,1.600,4.58
155,2.444,48.0,2.300,2.300,1.600,4.60
156,2.460,48.0,2.320,2.320,1.600,4.64
157,2.475,47.0,2.330,2.330,1.567,4.66
158,2.491,47.0,2.340,2.340,1.567,4.68
159,2.507,47.0,2.360,2.360,1.567,4.72
160,2.523,47.0,2.370,2.370,1.567,4.74
161,2.539,46.0,2.390,2.390,1.533,4.78
162,2.555,46.0,2.400,2.400,1.533,4.80
163,2.571,46.0,2.420,2.420,1.533,4.84
164,2.587,46.0,2.430,2.430,1.533,4.86
165,2.603,45.0,2.450,2.450,1.500,4.90
166,2.619,45.0,2.460,2.460,1.500,4.92
167,2.635,44.0,2.480,2.480,1.467,4.96
168,2.651,44.0,2.490,2.490,1.467,4.98
169,2.667,44.0,2.500,2.500,1.467,5.00
170,2.684,43.0,2.520,2.520,1.433,5.04
171,2.699,43.0,2.530,2.530,1.433,5.06
172,2.716,42.0,2.550,2.550,1.400,5.10
173,2.731,42.0,2.560,2.560,1.400,5.12
174,2.747,41.0,2.580,2.580,1.367,5.16
175,2.763,41.0,2.590,2.590,1.367,5.18
176,2.779,40.0,2.600,2.600,1.333,5.20
177,2.795,39.0,2.620,2.620,1.300,5.24
178,2.811,38.0,2.630,2.630,1.267,5.26
179,2.827,38.0,2.650,2.650,1.267,5.30
180,2.844,37.0,2.660,2.660,1.233,5.32
181,2.859,36.0,2.680,2.680,1.200,5.36
182,2.876,35.0,2.690,2.690,1.167,5.38
183,2.891,34.0,2.710,2.710,1.133,5.42
184,2.907,31.0,2.720,2.720,1.033,5.44
185,2.922,24.0,2.730,2.730,0.800,5.46
