일련번호,시간,하중,변위,테이블,강도,변형율
,[sec],[kgf],[mm],[mm],[kgf/mm²],[%]
1,0.000,0.0,0.000,0.000,0.000,0.00
2,0.000,10.0,0.000,0.070,0.333,0.00
3,0.010,11.0,0.080,0.080,0.367,0.16
4,0.026,12.0,0.090,0.090,0.400,0.18
5,0.042,13.0,0.110,0.110,0.433,0.22
6,0.059,14.0,0.120,0.120,0.467,0.24
7,0.075,15.0,0.140,0.140,0.500,0.28
8,0.090,15.0,0.150,0.150,0.500,0.30
9,0.107,16.0,0.170,0.170,0.533,0.34
10,0.123,17.0,0.180,0.180,0.567,0.36
11,0.139,18.0,0.200,0.200,0.600,0.40
12,0.154,19.0,0.210,0.210,0.633,0.42
13,0.170,20.0,0.230,0.230,0.667,0.46
14,0.187,20.0,0.240,0.240,0.667,0.48
15,0.203,21.0,0.260,0.260,0.700,0.52
16,0.219,22.0,0.270,0.270,0.733,0.54
17,0.235,22.0,0.290,0.290,0.733,0.58
18,0.251,22.0,0.300,0.300,0.733,0.60
19,0.267,22.0,0.320,0.320,0.733,0.64
20,0.282,22.0,0.330,0.330,0.733,0.66
21,0.298,22.0,0.350,0.350,0.733,0.70
22,0.315,22.0,0.360,0.360,0.733,0.72
23,0.331,23.0,0.370,0.370,0.767,0.74
24,0.346,23.0,0.390,0.390,0.767,0.78
25,0.362,24.0,0.400,0.400,0.800,0.80
26,0.378,24.0,0.420,0.420,0.800,0.84
27,0.395,25.0,0.430,0.430,0.833,0.86
28,0.411,26.0,0.450,0.450,0.867,0.90
29,0.427,26.0,0.460,0.460,0.867,0.92
30,0.442,27.0,0.480,0.480,0.900,0.96
31,0.458,28.0,0.490,0.490,0.933,0.98
32,0.474,28.0,0.510,0.510,0.933,1.02
33,0.490,29.0,0.520,0.520,0.967,1.04
34,0.506,30.0,0.540,0.540,1.000,1.08
35,0.522,31.0,0.550,0.550,1.033,1.10
36,0.538,31.0,0.570,0.570,1.033,1.14
37,0.555,31.0,0.580,0.580,1.033,1.16
38,0.571,31.0,0.590,0.590,1.033,1.18
39,0.587,28.0,0.610,0.610,0.933,1.22
40,0.602,27.0,0.620,0.620,0.900,1.24
41,0.618,26.0,0.640,0.640,0.867,1.28
42,0.635,26.0,0.650,0.650,0.867,1.30
43,0.651,26.0,0.670,0.670,0.867,1.34
44,0.667,26.0,0.680,0.680,0.867,1.36
45,0.683,26.0,0.700,0.700,0.867,1.40
46,0.699,26.0,0.710,0.710,0.867,1.42
47,0.715,26.0,0.730,0.730,0.867,1.46
48,0.731,26.0,0.740,0.740,0.867,1.48
49,0.747,27.0,0.760,0.760,0.900,1.52
50,0.762,28.0,0.770,0.770,0.933,1.54
51,0.779,28.0,0.790,0.790,0.933,1.58
52,0.795,29.0,0.800,0.800,0.967,1.60
53,0.811,30.0,0.810,0.810,1.000,1.62
54,0.827,31.0,0.830,0.830,1.033,1.66
55,0.842,31.0,0.840,0.840,1.033,1.68
56,0.858,32.0,0.860,0.860,1.067,1.72
57,0.874,33.0,0.870,0.870,1.100,1.74
58,0.891,34.0,0.890,0.890,1.133,1.78
59,0.907,34.0,0.900,0.900,1.133,1.80
60,0.923,35.0,0.920,0.920,1.167,1.84
61,0.939,36.0,0.930,0.930,1.200,1.86
62,0.955,37.0,0.950,0.950,1.233,1.90
63,0.971,37.0,0.960,0.960,1.233,1.92
64,0.987,37.0,0.980,0.980,1.233,1.96
65,1.003,38.0,0.990,0.990,1.267,1.98
66,1.018,39.0,1.000,1.000,1.300,2.00
67,1.035,40.0,1.020,1.020,1.333,2.04
68,1.050,40.0,1.030,1.030,1.333,2.06
69,1.066,41.0,1.050,1.050,1.367,2.10
70,1.083,41.0,1.060,1.060,1.367,2.12
71,1.099,42.0,1.080,1.080,1.400,2.16
72,1.114,42.0,1.090,1.090,1.400,2.18
73,1.131,43.0,1.110,1.110,1.433,2.22
74,1.147,43.0,1.120,1.120,1.433,2.24
75,1.163,44.0,1.140,1.140,1.467,2.28
76,1.178,44.0,1.150,1.150,1.467,2.30
77,1.195,45.0,1.160,1.160,1.500,2.32
78,1.211,45.0,1.180,1.180,1.500,2.36
79,1.226,45.0,1.190,1.190,1.500,2.38
80,1.243,46.0,1.210,1.210,1.533,2.42
81,1.259,46.0,1.220,1.220,1.533,2.44
82,1.275,46.0,1.240,1.240,1.533,2.48
83,1.290,46.0,1.250,1.250,1.533,2.50
84,1.307,46.0,1.270,1.270,1.533,2.54
85,1.323,46.0,1.280,1.280,1.533,2.56
86,1.339,46.0,1.300,1.300,1.533,2.60
87,1.355,46.0,1.310,1.310,1.533,2.62
88,1.371,46.0,1.330,1.330,1.533,2.66
89,1.387,45.0,1.340,1.340,1.500,2.68
90,1.403,45.0,1.350,1.350,1.500,2.70
91,1.418,45.0,1.370,1.370,1.500,2.74
92,1.434,44.0,1.380,1.380,1.467,2.76
93,1.450,44.0,1.400,1.400,1.467,2.80
94,1.467,43.0,1.410,1.410,1.433,2.82
95,1.483,43.0,1.430,1.430,1.433,2.86
96,1.499,42.0,1.440,1.440,1.400,2.88
97,1.515,41.0,1.460,1.460,1.367,2.92
98,1.531,41.0,1.470,1.470,1.367,2.94
99,1.547,40.0,1.490,1.490,1.333,2.98
100,1.563,39.0,1.500,1.500,1.300,3.00
101,1.579,38.0,1.510,1.510,1.267,3.02
102,1.595,37.0,1.530,1.530,1.233,3.06
103,1.611,36.0,1.540,1.540,1.200,3.08
104,1.627,36.0,1.560,1.560,1.200,3.12
105,1.643,34.0,1.570,1.570,1.133,3.14
106,1.658,33.0,1.590,1.590,1.100,3.18
107,1.676,31.0,1.600,1.600,1.033,3.20
108,1.690,30.0,1.620,1.620,1.000,3.24
109,1.707,28.0,1.630,1.630,0.933,3.26
110,1.723,25.0,1.650,1.650,0.833,3.30
111,1.739,19.0,1.660,1.660,0.633,3.32
