일련번호,시간,하중,변위,테이블,강도,변형율
,[sec],[kgf],[mm],[mm],[kgf/mm²],[%]
1,0.000,0.0,0.000,0.000,0.000,0.00
2,0.000,11.0,0.000,0.070,0.367,0.00
3,0.010,12.0,0.090,0.090,0.400,0.18
4,0.026,14.0,0.100,0.100,0.467,0.20
5,0.042,15.0,0.120,0.120,0.500,0.24
6,0.058,16.0,0.130,0.130,0.533,0.26
7,0.074,17.0,0.150,0.150,0.567,0.30
8,0.090,18.0,0.160,0.160,0.600,0.32
9,0.106,19.0,0.180,0.180,0.633,0.36
10,0.122,19.0,0.190,0.190,0.633,0.38
11,0.138,20.0,0.210,0.210,0.667,0.42
12,0.155,21.0,0.220,0.220,0.700,0.44
13,0.170,21.0,0.240,0.240,0.700,0.48
14,0.186,21.0,0.250,0.250,0.700,0.50
15,0.202,21.0,0.260,0.260,0.700,0.52
16,0.218,21.0,0.280,0.280,0.700,0.56
17,0.234,22.0,0.290,0.290,0.733,0.58
18,0.250,22.0,0.310,0.310,0.733,0.62
19,0.266,22.0,0.320,0.320,0.733,0.64
20,0.283,23.0,0.340,0.340,0.767,0.68
21,0.298,23.0,0.350,0.350,0.767,0.70
22,0.314,24.0,0.370,0.370,0.800,0.74
23,0.330,25.0,0.380,0.380,0.833,0.76
24,0.346,26.0,0.400,0.400,0.867,0.80
25,0.362,27.0,0.410,0.410,0.900,0.82
26,0.379,27.0,0.430,0.430,0.900,0.86
27,0.394,28.0,0.440,0.440,0.933,0.88
28,0.410,29.0,0.460,0.460,0.967,0.92
29,0.426,30.0,0.470,0.470,1.000,0.94
30,0.442,31.0,0.490,0.490,1.033,0.98
31,0.458,32.0,0.500,0.500,1.067,1.00
32,0.474,32.0,0.510,0.510,1.067,1.02
33,0.490,32.0,0.530,0.530,1.067,1.06
34,0.507,28.0,0.540,0.540,0.933,1.08
35,0.523,27.0,0.560,0.560,0.900,1.12
36,0.539,26.0,0.570,0.570,0.867,1.14
37,0.554,25.0,0.590,0.590,0.833,1.18
38,0.569,25.0,0.600,0.600,0.833,1.20
39,0.586,24.0,0.620,0.620,0.800,1.24
40,0.603,24.0,0.630,0.630,0.800,1.26
41,0.619,24.0,0.650,0.650,0.800,1.30
42,0.635,24.0,0.660,0.660,0.800,1.32
43,0.650,25.0,0.680,0.680,0.833,1.36
44,0.667,26.0,0.690,0.690,0.867,1.38
45,0.682,26.0,0.700,0.700,0.867,1.40
46,0.698,27.0,0.720,0.720,0.900,1.44
47,0.714,28.0,0.730,0.730,0.933,1.46
48,0.730,29.0,0.750,0.750,0.967,1.50
49,0.746,30.0,0.760,0.760,1.000,1.52
50,0.763,31.0,0.780,0.780,1.033,1.56
51,0.778,32.0,0.790,0.790,1.067,1.58
52,0.795,33.0,0.810,0.810,1.100,1.62
53,0.810,33.0,0.820,0.820,1.100,1.64
54,0.827,34.0,0.840,0.840,1.133,1.68
55,0.843,35.0,0.850,0.850,1.167,1.70
56,0.858,36.0,0.870,0.870,1.200,1.74
57,0.874,37.0,0.880,0.880,1.233,1.76
58,0.890,38.0,0.890,0.890,1.267,1.78
59,0.906,39.0,0.910,0.910,1.300,1.82
60,0.922,39.0,0.920,0.920,1.300,1.84
61,0.938,40.0,0.940,0.940,1.333,1.88
62,0.955,41.0,0.950,0.950,1.367,1.90
63,0.970,42.0,0.970,0.970,1.400,1.94
64,0.986,42.0,0.980,0.980,1.400,1.96
65,1.003,43.0,1.000,1.000,1.433,2.00
66,1.019,44.0,1.010,1.010,1.467,2.02
67,1.034,44.0,1.030,1.030,1.467,2.06
68,1.050,45.0,1.040,1.040,1.500,2.08
69,1.067,46.0,1.060,1.060,1.533,2.12
70,1.083,46.0,1.070,1.070,1.533,2.14
71,1.098,47.0,1.080,1.080,1.567,2.16
72,1.114,47.0,1.100,1.100,1.567,2.20
73,1.131,48.0,1.110,1.110,1.600,2.22
74,1.147,48.0,1.130,1.130,1.600,2.26
75,1.163,49.0,1.140,1.140,1.633,2.28
76,1.178,49.0,1.160,1.160,1.633,2.32
77,1.194,50.0,1.170,1.170,1.667,2.34
78,1.211,50.0,1.190,1.190,1.667,2.38
79,1.226,50.0,1.200,1.200,1.667,2.40
80,1.242,51.0,1.220,1.220,1.700,2.44
81,1.259,51.0,1.230,1.230,1.700,2.46
82,1.274,51.0,1.250,1.250,1.700,2.50
83,1.291,52.0,1.260,1.260,1.733,2.52
84,1.307,52.0,1.270,1.270,1.733,2.54
85,1.322,52.0,1.290,1.290,1.733,2.58
86,1.339,52.0,1.300,1.300,1.733,2.60
87,1.354,52.0,1.320,1.320,1.733,2.64
88,1.371,52.0,1.330,1.330,1.733,2.66
89,1.387,52.0,1.350,1.350,1.733,2.70
90,1.403,52.0,1.360,1.360,1.733,2.72
91,1.419,52.0,1.380,1.380,1.733,2.76
92,1.435,52.0,1.390,1.390,1.733,2.78
93,1.451,52.0,1.410,1.410,1.733,2.82
94,1.467,52.0,1.420,1.420,1.733,2.84
95,1.482,51.0,1.430,1.430,1.700,2.86
96,1.498,51.0,1.450,1.450,1.700,2.90
97,1.515,50.0,1.460,1.460,1.667,2.92
98,1.530,50.0,1.480,1.480,1.667,2.96
99,1.546,50.0,1.490,1.490,1.667,2.98
100,1.562,49.0,1.510,1.510,1.633,3.02
101,1.579,49.0,1.520,1.520,1.633,3.04
102,1.594,49.0,1.540,1.540,1.633,3.08
103,1.610,48.0,1.550,1.550,1.600,3.10
104,1.627,48.0,1.570,1.570,1.600,3.14
105,1.643,48.0,1.580,1.580,1.600,3.16
106,1.659,47.0,1.590,1.590,1.567,3.18
107,1.674,47.0,1.610,1.610,1.567,3.22
108,1.691,47.0,1.620,1.620,1.567,3.24
109,1.707,47.0,1.640,1.640,1.567,3.28
110,1.723,46.0,1.650,1.650,1.533,3.30
111,1.739,46.0,1.670,1.670,1.533,3.34
112,1.754,46.0,1.680,1.680,1.533,3.36
113,1.770,45.0,1.700,1.700,1.500,3.40
114,1.787,45.0,1.710,1.710,1.500,3.42
115,1.803,45.0,1.730,1.730,1.500,3.46
116,1.819,44.0,1.740,1.740,1.467,3.48
117,1.835,43.0,1.750,1.750,1.433,3.50
118,1.850,42.0,1.770,1.770,1.400,3.54
119,1.867,42.0,1.780,1.780,1.400,3.56
120,1.882,41.0,1.800,1.800,1.367,3.60
121,1.899,40.0,1.810,1.810,1.333,3.62
122,1.915,39.0,1.830,1.830,1.300,3.66
123,1.930,38.0,1.840,1.840,1.267,3.68
124,1.947,38.0,1.860,1.860,1.267,3.72
125,1.963,37.0,1.870,1.870,1.233,3.74
126,1.979,36.0,1.880,1.880,1.200,3.76
127,1.995,36.0,1.900,1.900,1.200,3.80
128,2.011,35.0,1.910,1.910,1.167,3.82
129,2.027,34.0,1.930,1.930,1.133,3.86
130,2.042,33.0,1.940,1.940,1.100,3.88
131,2.058,32.0,1.960,1.960,1.067,3.92
132,2.075,30.0,1.970,1.970,1.000,3.94
133,2.091,30.0,1.990,1.990,1.000,3.98
134,2.107,28.0,2.000,2.000,0.933,4.00
135,2.123,26.0,2.020,2.020,0.867,4.04
