일련번호,시간,하중,변위,테이블,강도,변형율
,[sec],[kgf],[mm],[mm],[kgf/mm²],[%]
1,0.000,0.0,0.000,0.000,0.000,0.00
2,0.000,11.0,0.000,0.070,0.367,0.00
3,0.011,12.0,0.080,0.080,0.400,0.16
4,0.027,13.0,0.100,0.100,0.433,0.20
5,0.043,14.0,0.110,0.110,0.467,0.22
6,0.059,15.0,0.130,0.130,0.500,0.26
7,0.076,15.0,0.140,0.140,0.500,0.28
8,0.092,16.0,0.160,0.160,0.533,0.32
9,0.108,17.0,0.170,0.170,0.567,0.34
10,0.123,18.0,0.190,0.190,0.600,0.38
11,0.140,19.0,0.200,0.200,0.633,0.40
12,0.155,20.0,0.220,0.220,0.667,0.44
13,0.172,20.0,0.230,0.230,0.667,0.46
14,0.187,21.0,0.250,0.250,0.700,0.50
15,0.204,22.0,0.260,0.260,0.733,0.52
16,0.219,22.0,0.280,0.280,0.733,0.56
17,0.236,23.0,0.290,0.290,0.767,0.58
18,0.252,23.0,0.310,0.310,0.767,0.62
19,0.268,23.0,0.320,0.320,0.767,0.64
20,0.284,24.0,0.330,0.330,0.800,0.66
21,0.300,24.0,0.350,0.350,0.800,0.70
22,0.316,24.0,0.360,0.360,0.800,0.72
23,0.332,24.0,0.380,0.380,0.800,0.76
24,0.347,24.0,0.390,0.390,0.800,0.78
25,0.364,25.0,0.410,0.410,0.833,0.82
26,0.379,26.0,0.420,0.420,0.867,0.84
27,0.395,26.0,0.440,0.440,0.867,0.88
28,0.411,27.0,0.450,0.450,0.900,0.90
29,0.427,28.0,0.470,0.470,0.933,0.94
30,0.444,28.0,0.480,0.480,0.933,0.96
31,0.459,29.0,0.500,0.500,0.967,1.00
32,0.475,30.0,0.510,0.510,1.000,1.02
33,0.491,31.0,0.530,0.530,1.033,1.06
34,0.508,31.0,0.540,0.540,1.033,1.08
35,0.524,32.0,0.550,0.550,1.067,1.10
36,0.540,32.0,0.570,0.570,1.067,1.14
37,0.556,32.0,0.580,0.580,1.067,1.16
38,0.571,29.0,0.600,0.600,0.967,1.20
39,0.588,27.0,0.610,0.610,0.900,1.22
40,0.603,26.0,0.630,0.630,0.867,1.26
41,0.620,26.0,0.640,0.640,0.867,1.28
42,0.636,26.0,0.660,0.660,0.867,1.32
43,0.652,26.0,0.670,0.670,0.867,1.34
44,0.668,26.0,0.690,0.690,0.867,1.38
45,0.684,26.0,0.700,0.700,0.867,1.40
46,0.699,27.0,0.720,0.720,0.900,1.44
47,0.715,27.0,0.730,0.730,0.900,1.46
48,0.731,28.0,0.750,0.750,0.933,1.50
49,0.748,29.0,0.760,0.760,0.967,1.52
50,0.764,29.0,0.770,0.770,0.967,1.54
51,0.780,30.0,0.790,0.790,1.000,1.58
52,0.796,31.0,0.800,0.800,1.033,1.60
53,0.812,32.0,0.820,0.820,1.067,1.64
54,0.828,32.0,0.830,0.830,1.067,1.66
55,0.844,33.0,0.850,0.850,1.100,1.70
56,0.860,34.0,0.860,0.860,1.133,1.72
57,0.876,34.0,0.880,0.880,1.133,1.76
58,0.892,35.0,0.890,0.890,1.167,1.78
59,0.907,36.0,0.910,0.910,1.200,1.82
60,0.924,36.0,0.920,0.920,1.200,1.84
61,0.939,37.0,0.940,0.940,1.233,1.88
62,0.956,38.0,0.950,0.950,1.267,1.90
63,0.972,38.0,0.960,0.960,1.267,1.92
64,0.988,39.0,0.980,0.980,1.300,1.96
65,1.004,40.0,0.990,0.990,1.333,1.98
66,1.019,40.0,1.010,1.010,1.333,2.02
67,1.035,41.0,1.020,1.020,1.367,2.04
68,1.052,41.0,1.040,1.040,1.367,2.08
69,1.067,42.0,1.050,1.050,1.400,2.10
70,1.083,43.0,1.070,1.070,1.433,2.14
71,1.100,43.0,1.080,1.080,1.433,2.16
72,1.115,44.0,1.100,1.100,1.467,2.20
73,1.132,44.0,1.110,1.110,1.467,2.22
74,1.147,44.0,1.120,1.120,1.467,2.24
75,1.164,45.0,1.140,1.140,1.500,2.28
76,1.179,45.0,1.150,1.150,1.500,2.30
77,1.196,46.0,1.170,1.170,1.533,2.34
78,1.212,46.0,1.180,1.180,1.533,2.36
79,1.228,47.0,1.200,1.200,1.567,2.40
80,1.244,47.0,1.210,1.210,1.567,2.42
81,1.259,47.0,1.230,1.230,1.567,2.46
82,1.276,48.0,1.240,1.240,1.600,2.48
83,1.292,48.0,1.260,1.260,1.600,2.52
84,1.308,48.0,1.270,1.270,1.600,2.54
85,1.324,48.0,1.290,1.290,1.600,2.58
86,1.340,48.0,1.300,1.300,1.600,2.60
87,1.355,48.0,1.310,1.310,1.600,2.62
88,1.372,48.0,1.330,1.330,1.600,2.66
89,1.388,49.0,1.340,1.340,1.633,2.68
90,1.404,49.0,1.360,1.360,1.633,2.72
91,1.420,49.0,1.370,1.370,1.633,2.74
92,1.436,49.0,1.390,1.390,1.633,2.78
93,1.452,49.0,1.400,1.400,1.633,2.80
94,1.468,49.0,1.420,1.420,1.633,2.84
95,1.484,49.0,1.430,1.430,1.633,2.86
96,1.500,49.0,1.450,1.450,1.633,2.90
97,1.516,48.0,1.460,1.460,1.600,2.92
98,1.532,48.0,1.470,1.470,1.600,2.94
99,1.548,48.0,1.490,1.490,1.600,2.98
100,1.564,48.0,1.500,1.500,1.600,3.00
101,1.580,48.0,1.520,1.520,1.600,3.04
102,1.596,47.0,1.530,1.530,1.567,3.06
103,1.612,47.0,1.550,1.550,1.567,3.10
104,1.627,46.0,1.560,1.560,1.533,3.12
105,1.644,46.0,1.580,1.580,1.533,3.16
106,1.660,46.0,1.590,1.590,1.533,3.18
107,1.676,46.0,1.610,1.610,1.533,3.22
108,1.693,45.0,1.620,1.620,1.500,3.24
109,1.708,45.0,1.630,1.630,1.500,3.26
110,1.724,45.0,1.650,1.650,1.500,3.30
111,1.740,45.0,1.660,1.660,1.500,3.32
112,1.756,45.0,1.680,1.680,1.500,3.36
113,1.773,45.0,1.690,1.690,1.500,3.38
114,1.789,45.0,1.710,1.710,1.500,3.42
115,1.804,45.0,1.720,1.720,1.500,3.44
116,1.820,44.0,1.740,1.740,1.467,3.48
117,1.836,44.0,1.750,1.750,1.467,3.50
118,1.852,44.0,1.770,1.770,1.467,3.54
119,1.868,44.0,1.780,1.780,1.467,3.56
120,1.884,43.0,1.790,1.790,1.433,3.58
121,1.900,43.0,1.810,1.810,1.433,3.62
122,1.916,43.0,1.820,1.820,1.433,3.64
123,1.933,43.0,1.840,1.840,1.433,3.68
124,1.949,43.0,1.850,1.850,1.433,3.70
125,1.965,43.0,1.870,1.870,1.433,3.74
126,1.980,43.0,1.880,1.880,1.433,3.76
127,1.996,42.0,1.900,1.900,1.400,3.80
128,2.011,42.0,1.910,1.910,1.400,3.82
129,2.028,42.0,1.920,1.920,1.400,3.84
130,2.045,42.0,1.940,1.940,1.400,3.88
131,2.060,42.0,1.950,1.950,1.400,3.90
132,2.076,41.0,1.970,1.970,1.367,3.94
133,2.092,41.0,1.980,1.980,1.367,3.96
134,2.109,41.0,2.000,2.000,1.367,4.00
135,2.124,41.0,2.010,2.010,1.367,4.02
136,2.140,40.0,2.030,2.030,1.333,4.06
137,2.156,40.0,2.040,2.040,1.333,4.08
138,2.173,40.0,2.060,2.060,1.333,4.12
139,2.188,40.0,2.070,2.070,1.333,4.14
140,2.204,39.0,2.080,2.080,1.300,4.16
141,2.220,39.0,2.100,2.100,1.300,4.20
142,2.236,38.0,2.110,2.110,1.267,4.22
143,2.252,38.0,2.130,2.130,1.267,4.26
144,2.268,37.0,2.140,2.140,1.233,4.28
145,2.285,34.0,2.160,2.160,1.133,4.32
146,2.301,26.0,2.170,2.170,0.867,4.34
147,2.318,19.0,2.190,2.190,0.633,4.38
