일련번호,시간,하중,변위,테이블,강도,변형율
,[sec],[kgf],[mm],[mm],[kgf/mm²],[%]
1,0.000,0.0,0.000,0.000,0.000,0.00
2,0.000,11.0,0.000,0.070,0.367,0.00
3,0.011,12.0,0.080,0.080,0.400,0.16
4,0.026,13.0,0.090,0.090,0.433,0.18
5,0.042,14.0,0.110,0.110,0.467,0.22
6,0.057,15.0,0.120,0.120,0.500,0.24
7,0.074,16.0,0.140,0.140,0.533,0.28
8,0.090,17.0,0.150,0.150,0.567,0.30
9,0.106,18.0,0.170,0.170,0.600,0.34
10,0.122,19.0,0.180,0.180,0.633,0.36
11,0.137,20.0,0.200,0.200,0.667,0.40
12,0.154,21.0,0.210,0.210,0.700,0.42
13,0.169,22.0,0.230,0.230,0.733,0.46
14,0.186,22.0,0.240,0.240,0.733,0.48
15,0.203,23.0,0.260,0.260,0.767,0.52
16,0.218,23.0,0.270,0.270,0.767,0.54
17,0.235,24.0,0.290,0.290,0.800,0.58
18,0.250,24.0,0.300,0.300,0.800,0.60
19,0.266,25.0,0.320,0.320,0.833,0.64
20,0.282,25.0,0.330,0.330,0.833,0.66
21,0.297,25.0,0.350,0.350,0.833,0.70
22,0.314,25.0,0.360,0.360,0.833,0.72
23,0.330,25.0,0.370,0.370,0.833,0.74
24,0.346,26.0,0.390,0.390,0.867,0.78
25,0.362,26.0,0.400,0.400,0.867,0.80
26,0.378,27.0,0.420,0.420,0.900,0.84
27,0.394,28.0,0.430,0.430,0.933,0.86
28,0.410,29.0,0.450,0.450,0.967,0.90
29,0.426,30.0,0.460,0.460,1.000,0.92
30,0.442,30.0,0.480,0.480,1.000,0.96
31,0.458,30.0,0.490,0.490,1.000,0.98
32,0.474,28.0,0.510,0.510,0.933,1.02
33,0.490,27.0,0.520,0.520,0.900,1.04
34,0.506,26.0,0.540,0.540,0.867,1.08
35,0.522,25.0,0.550,0.550,0.833,1.10
36,0.538,25.0,0.570,0.570,0.833,1.14
37,0.553,25.0,0.580,0.580,0.833,1.16
38,0.570,25.0,0.590,0.590,0.833,1.18
39,0.586,25.0,0.610,0.610,0.833,1.22
40,0.602,25.0,0.620,0.620,0.833,1.24
41,0.618,25.0,0.640,0.640,0.833,1.28
42,0.634,26.0,0.650,0.650,0.867,1.30
43,0.650,26.0,0.670,0.670,0.867,1.34
44,0.666,27.0,0.680,0.680,0.900,1.36
45,0.682,28.0,0.700,0.700,0.933,1.40
46,0.698,29.0,0.710,0.710,0.967,1.42
47,0.714,29.0,0.730,0.730,0.967,1.46
48,0.730,30.0,0.740,0.740,1.000,1.48
49,0.746,31.0,0.760,0.760,1.033,1.52
50,0.762,32.0,0.770,0.770,1.067,1.54
51,0.778,32.0,0.790,0.790,1.067,1.58
52,0.794,33.0,0.800,0.800,1.100,1.60
53,0.810,34.0,0.810,0.810,1.133,1.62
54,0.826,35.0,0.830,0.830,1.167,1.66
55,0.842,36.0,0.840,0.840,1.200,1.68
56,0.858,37.0,0.860,0.860,1.233,1.72
57,0.874,38.0,0.870,0.870,1.267,1.74
58,0.890,39.0,0.890,0.890,1.300,1.78
59,0.906,39.0,0.900,0.900,1.300,1.80
60,0.922,40.0,0.920,0.920,1.333,1.84
61,0.938,41.0,0.930,0.930,1.367,1.86
62,0.954,41.0,0.950,0.950,1.367,1.90
63,0.970,42.0,0.960,0.960,1.400,1.92
64,0.987,43.0,0.980,0.980,1.433,1.96
65,1.002,43.0,0.990,0.990,1.433,1.98
66,1.018,44.0,1.000,1.000,1.467,2.00
67,1.034,44.0,1.020,1.020,1.467,2.04
68,1.050,45.0,1.030,1.030,1.500,2.06
69,1.066,45.0,1.050,1.050,1.500,2.10
70,1.082,45.0,1.060,1.060,1.500,2.12
71,1.098,46.0,1.080,1.080,1.533,2.16
72,1.114,46.0,1.090,1.090,1.533,2.18
73,1.130,47.0,1.110,1.110,1.567,2.22
74,1.146,47.0,1.120,1.120,1.567,2.24
75,1.162,47.0,1.140,1.140,1.567,2.28
76,1.178,48.0,1.150,1.150,1.600,2.30
77,1.194,48.0,1.170,1.170,1.600,2.34
78,1.210,48.0,1.180,1.180,1.600,2.36
79,1.226,49.0,1.190,1.190,1.633,2.38
80,1.242,49.0,1.210,1.210,1.633,2.42
81,1.258,49.0,1.220,1.220,1.633,2.44
82,1.273,50.0,1.240,1.240,1.667,2.48
83,1.290,50.0,1.250,1.250,1.667,2.50
84,1.306,50.0,1.270,1.270,1.667,2.54
85,1.323,51.0,1.280,1.280,1.700,2.56
86,1.338,51.0,1.300,1.300,1.700,2.60
87,1.355,51.0,1.310,1.310,1.700,2.62
88,1.370,51.0,1.330,1.330,1.700,2.66
89,1.386,52.0,1.340,1.340,1.733,2.68
90,1.402,52.0,1.350,1.350,1.733,2.70
91,1.419,52.0,1.370,1.370,1.733,2.74
92,1.434,52.0,1.380,1.380,1.733,2.76
93,1.451,53.0,1.400,1.400,1.767,2.80
94,1.467,53.0,1.410,1.410,1.767,2.82
95,1.482,53.0,1.430,1.430,1.767,2.86
96,1.499,53.0,1.440,1.440,1.767,2.88
97,1.514,53.0,1.460,1.460,1.767,2.92
98,1.530,53.0,1.470,1.470,1.767,2.94
99,1.546,53.0,1.490,1.490,1.767,2.98
100,1.561,53.0,1.500,1.500,1.767,3.00
101,1.578,53.0,1.520,1.520,1.767,3.04
102,1.594,53.0,1.530,1.530,1.767,3.06
103,1.610,53.0,1.540,1.540,1.767,3.08
104,1.626,53.0,1.560,1.560,1.767,3.12
105,1.642,52.0,1.570,1.570,1.733,3.14
106,1.659,51.0,1.590,1.590,1.700,3.18
107,1.674,51.0,1.600,1.600,1.700,3.20
108,1.690,50.0,1.620,1.620,1.667,3.24
109,1.706,50.0,1.630,1.630,1.667,3.26
110,1.722,49.0,1.650,1.650,1.633,3.30
111,1.739,49.0,1.660,1.660,1.633,3.32
112,1.754,48.0,1.680,1.680,1.600,3.36
113,1.770,48.0,1.690,1.690,1.600,3.38
114,1.786,48.0,1.700,1.700,1.600,3.40
115,1.803,47.0,1.720,1.720,1.567,3.44
116,1.819,46.0,1.730,1.730,1.533,3.46
117,1.835,46.0,1.750,1.750,1.533,3.50
118,1.851,46.0,1.760,1.760,1.533,3.52
119,1.867,45.0,1.780,1.780,1.500,3.56
120,1.883,44.0,1.790,1.790,1.467,3.58
121,1.898,43.0,1.810,1.810,1.433,3.62
122,1.914,42.0,1.820,1.820,1.400,3.64
123,1.931,41.0,1.830,1.830,1.367,3.66
124,1.946,40.0,1.850,1.850,1.333,3.70
125,1.963,39.0,1.860,1.860,1.300,3.72
126,1.979,38.0,1.880,1.880,1.267,3.76
127,1.995,37.0,1.890,1.890,1.233,3.78
128,2.010,35.0,1.910,1.910,1.167,3.82
129,2.027,33.0,1.920,1.920,1.100,3.84
130,2.042,29.0,1.940,1.940,0.967,3.88
131,2.058,26.0,1.950,1.950,0.867,3.90
