일련번호,시간,하중,변위,테이블,강도,변형율
,[sec],[kgf],[mm],[mm],[kgf/mm²],[%]
1,0.000,0.0,0.000,0.000,0.000,0.00
2,0.000,10.0,0.000,0.070,0.333,0.00
3,0.011,10.0,0.080,0.080,0.333,0.16
4,0.027,11.0,0.100,0.100,0.367,0.20
5,0.043,12.0,0.110,0.110,0.400,0.22
6,0.059,12.0,0.130,0.130,0.400,0.26
7,0.075,13.0,0.140,0.140,0.433,0.28
8,0.091,13.0,0.160,0.160,0.433,0.32
9,0.106,14.0,0.170,0.170,0.467,0.34
10,0.122,15.0,0.190,0.190,0.500,0.38
11,0.138,15.0,0.200,0.200,0.500,0.40
12,0.154,16.0,0.220,0.220,0.533,0.44
13,0.171,16.0,0.230,0.230,0.533,0.46
14,0.186,17.0,0.250,0.250,0.567,0.50
15,0.203,17.0,0.260,0.260,0.567,0.52
16,0.219,17.0,0.280,0.280,0.567,0.56
17,0.235,17.0,0.290,0.290,0.567,0.58
18,0.251,17.0,0.310,0.310,0.567,0.62
19,0.267,17.0,0.320,0.320,0.567,0.64
20,0.283,18.0,0.330,0.330,0.600,0.66
21,0.299,18.0,0.350,0.350,0.600,0.70
22,0.315,18.0,0.360,0.360,0.600,0.72
23,0.330,19.0,0.380,0.380,0.633,0.76
24,0.346,19.0,0.390,0.390,0.633,0.78
25,0.362,20.0,0.410,0.410,0.667,0.82
26,0.378,21.0,0.420,0.420,0.700,0.84
27,0.395,22.0,0.440,0.440,0.733,0.88
28,0.411,22.0,0.450,0.450,0.733,0.90
29,0.427,23.0,0.470,0.470,0.767,0.94
30,0.443,24.0,0.480,0.480,0.800,0.96
31,0.458,24.0,0.500,0.500,0.800,1.00
32,0.475,25.0,0.510,0.510,0.833,1.02
33,0.491,25.0,0.530,0.530,0.833,1.06
34,0.507,25.0,0.540,0.540,0.833,1.08
35,0.523,23.0,0.550,0.550,0.767,1.10
36,0.540,22.0,0.570,0.570,0.733,1.14
37,0.555,21.0,0.580,0.580,0.700,1.16
38,0.571,20.0,0.600,0.600,0.667,1.20
39,0.587,20.0,0.610,0.610,0.667,1.22
40,0.603,20.0,0.630,0.630,0.667,1.26
41,0.620,20.0,0.640,0.640,0.667,1.28
42,0.635,20.0,0.660,0.660,0.667,1.32
43,0.651,20.0,0.670,0.670,0.667,1.34
44,0.668,20.0,0.690,0.690,0.667,1.38
45,0.683,20.0,0.700,0.700,0.667,1.40
46,0.699,21.0,0.720,0.720,0.700,1.44
47,0.715,22.0,0.730,0.730,0.733,1.46
48,0.731,22.0,0.750,0.750,0.733,1.50
49,0.747,23.0,0.760,0.760,0.767,1.52
50,0.763,24.0,0.770,0.770,0.800,1.54
51,0.779,24.0,0.790,0.790,0.800,1.58
52,0.795,25.0,0.800,0.800,0.833,1.60
53,0.811,26.0,0.820,0.820,0.867,1.64
54,0.827,27.0,0.830,0.830,0.900,1.66
55,0.843,28.0,0.850,0.850,0.933,1.70
56,0.858,29.0,0.860,0.860,0.967,1.72
57,0.874,29.0,0.880,0.880,0.967,1.76
58,0.890,30.0,0.890,0.890,1.000,1.78
59,0.907,31.0,0.910,0.910,1.033,1.82
60,0.923,31.0,0.920,0.920,1.033,1.84
61,0.939,32.0,0.940,0.940,1.067,1.88
62,0.955,33.0,0.950,0.950,1.100,1.90
63,0.971,33.0,0.960,0.960,1.100,1.92
64,0.987,34.0,0.980,0.980,1.133,1.96
65,1.003,35.0,0.990,0.990,1.167,1.98
66,1.019,35.0,1.010,1.010,1.167,2.02
67,1.035,36.0,1.020,1.020,1.200,2.04
68,1.051,36.0,1.040,1.040,1.200,2.08
69,1.067,37.0,1.050,1.050,1.233,2.10
70,1.083,37.0,1.070,1.070,1.233,2.14
71,1.099,38.0,1.080,1.080,1.267,2.16
72,1.115,38.0,1.100,1.100,1.267,2.20
73,1.131,39.0,1.110,1.110,1.300,2.22
74,1.147,39.0,1.120,1.120,1.300,2.24
75,1.163,40.0,1.140,1.140,1.333,2.28
76,1.179,40.0,1.150,1.150,1.333,2.30
77,1.195,40.0,1.170,1.170,1.333,2.34
78,1.211,41.0,1.180,1.180,1.367,2.36
79,1.227,41.0,1.200,1.200,1.367,2.40
80,1.243,41.0,1.210,1.210,1.367,2.42
81,1.259,42.0,1.230,1.230,1.400,2.46
82,1.275,42.0,1.240,1.240,1.400,2.48
83,1.290,42.0,1.260,1.260,1.400,2.52
84,1.307,42.0,1.270,1.270,1.400,2.54
85,1.323,42.0,1.290,1.290,1.400,2.58
86,1.340,43.0,1.300,1.300,1.433,2.60
87,1.356,43.0,1.310,1.310,1.433,2.62
88,1.371,43.0,1.330,1.330,1.433,2.66
89,1.387,43.0,1.340,1.340,1.433,2.68
90,1.403,43.0,1.360,1.360,1.433,2.72
91,1.419,43.0,1.370,1.370,1.433,2.74
92,1.436,43.0,1.390,1.390,1.433,2.78
93,1.451,43.0,1.400,1.400,1.433,2.80
94,1.467,43.0,1.420,1.420,1.433,2.84
95,1.483,43.0,1.430,1.430,1.433,2.86
96,1.499,43.0,1.450,1.450,1.433,2.90
97,1.515,43.0,1.460,1.460,1.433,2.92
98,1.531,43.0,1.470,1.470,1.433,2.94
99,1.547,43.0,1.490,1.490,1.433,2.98
100,1.563,42.0,1.500,1.500,1.400,3.00
101,1.579,42.0,1.520,1.520,1.400,3.04
102,1.595,42.0,1.530,1.530,1.400,3.06
103,1.611,42.0,1.550,1.550,1.400,3.10
104,1.627,42.0,1.560,1.560,1.400,3.12
105,1.643,41.0,1.580,1.580,1.367,3.16
106,1.659,41.0,1.590,1.590,1.367,3.18
107,1.675,41.0,1.610,1.610,1.367,3.22
108,1.691,41.0,1.620,1.620,1.367,3.24
109,1.707,40.0,1.630,1.630,1.333,3.26
110,1.724,40.0,1.650,1.650,1.333,3.30
111,1.739,40.0,1.660,1.660,1.333,3.32
112,1.755,40.0,1.680,1.680,1.333,3.36
113,1.771,40.0,1.690,1.690,1.333,3.38
114,1.787,39.0,1.710,1.710,1.300,3.42
115,1.804,39.0,1.720,1.720,1.300,3.44
116,1.820,39.0,1.740,1.740,1.300,3.48
117,1.836,39.0,1.750,1.750,1.300,3.50
118,1.852,39.0,1.770,1.770,1.300,3.54
119,1.868,38.0,1.780,1.780,1.267,3.56
120,1.883,38.0,1.790,1.790,1.267,3.58
121,1.899,38.0,1.810,1.810,1.267,3.62
122,1.915,38.0,1.820,1.820,1.267,3.64
123,1.931,38.0,1.840,1.840,1.267,3.68
124,1.947,38.0,1.850,1.850,1.267,3.70
125,1.963,38.0,1.870,1.870,1.267,3.74
126,1.979,38.0,1.880,1.880,1.267,3.76
127,1.995,37.0,1.900,1.900,1.233,3.80
128,2.011,37.0,1.910,1.910,1.233,3.82
129,2.027,37.0,1.920,1.920,1.233,3.84
130,2.042,37.0,1.940,1.940,1.233,3.88
131,2.059,37.0,1.950,1.950,1.233,3.90
132,2.074,37.0,1.970,1.970,1.233,3.94
133,2.092,37.0,1.980,1.980,1.233,3.96
134,2.107,37.0,2.000,2.000,1.233,4.00
135,2.123,37.0,2.010,2.010,1.233,4.02
136,2.140,36.0,2.030,2.030,1.200,4.06
137,2.156,36.0,2.040,2.040,1.200,4.08
138,2.171,36.0,2.060,2.060,1.200,4.12
139,2.187,36.0,2.070,2.070,1.200,4.14
140,2.204,36.0,2.080,2.080,1.200,4.16
141,2.219,36.0,2.100,2.100,1.200,4.20
142,2.236,36.0,2.110,2.110,1.200,4.22
143,2.251,36.0,2.130,2.130,1.200,4.26
144,2.267,35.0,2.140,2.140,1.167,4.28
145,2.283,35.0,2.160,2.160,1.167,4.32
146,2.300,35.0,2.170,2.170,1.167,4.34
147,2.316,35.0,2.190,2.190,1.167,4.38
148,2.331,35.0,2.200,2.200,1.167,4.40
149,2.348,35.0,2.210,2.210,1.167,4.42
150,2.363,34.0,2.230,2.230,1.133,4.46
151,2.379,34.0,2.240,2.240,1.133,4.48
152,2.395,34.0,2.260,2.260,1.133,4.52
153,2.411,34.0,2.270,2.270,1.133,4.54
154,2.427,34.0,2.290,2.290,1.133,4.58
155,2.443,34.0,2.300,2.300,1.133,4.60
156,2.459,33.0,2.320,2.320,1.100,4.64
157,2.476,33.0,2.330,2.330,1.100,4.66
158,2.491,33.0,2.340,2.340,1.100,4.68
159,2.507,33.0,2.360,2.360,1.100,4.72
160,2.523,33.0,2.370,2.370,1.100,4.74
161,2.540,33.0,2.390,2.390,1.100,4.78
162,2.556,32.0,2.400,2.400,1.067,4.80
163,2.571,32.0,2.420,2.420,1.067,4.84
164,2.587,32.0,2.430,2.430,1.067,4.86
165,2.603,32.0,2.450,2.450,1.067,4.90
166,2.619,32.0,2.460,2.460,1.067,4.92
167,2.635,31.0,2.480,2.480,1.033,4.96
168,2.652,31.0,2.490,2.490,1.033,4.98
169,2.668,31.0,2.500,2.500,1.033,5.00
170,2.683,31.0,2.520,2.520,1.033,5.04
171,2.699,30.0,2.530,2.530,1.000,5.06
172,2.715,30.0,2.550,2.550,1.000,5.10
173,2.732,29.0,2.560,2.560,0.967,5.12
174,2.748,27.0,2.580,2.580,0.900,5.16
175,2.764,23.0,2.590,2.590,0.767,5.18
176,2.779,16.0,2.600,2.600,0.533,5.20
