일련번호,시간,하중,변위,테이블,강도,변형율
,[sec],[kgf],[mm],[mm],[kgf/mm²],[%]
1,0.000,0.0,0.000,0.000,0.000,0.00
2,0.000,10.0,0.000,0.070,0.333,0.00
3,0.012,11.0,0.090,0.090,0.367,0.18
4,0.028,12.0,0.100,0.100,0.400,0.20
5,0.044,12.0,0.120,0.120,0.400,0.24
6,0.060,13.0,0.130,0.130,0.433,0.26
7,0.076,13.0,0.150,0.150,0.433,0.30
8,0.091,13.0,0.160,0.160,0.433,0.32
9,0.107,14.0,0.180,0.180,0.467,0.36
10,0.124,15.0,0.190,0.190,0.500,0.38
11,0.139,15.0,0.210,0.210,0.500,0.42
12,0.154,16.0,0.220,0.220,0.533,0.44
13,0.172,16.0,0.240,0.240,0.533,0.48
14,0.188,16.0,0.250,0.250,0.533,0.50
15,0.203,17.0,0.260,0.260,0.567,0.52
16,0.219,17.0,0.280,0.280,0.567,0.56
17,0.235,17.0,0.290,0.290,0.567,0.58
18,0.251,17.0,0.310,0.310,0.567,0.62
19,0.267,18.0,0.320,0.320,0.600,0.64
20,0.283,18.0,0.340,0.340,0.600,0.68
21,0.300,18.0,0.350,0.350,0.600,0.70
22,0.316,19.0,0.370,0.370,0.633,0.74
23,0.332,19.0,0.380,0.380,0.633,0.76
24,0.348,20.0,0.400,0.400,0.667,0.80
25,0.364,21.0,0.410,0.410,0.700,0.82
26,0.379,21.0,0.430,0.430,0.700,0.86
27,0.396,22.0,0.440,0.440,0.733,0.88
28,0.411,23.0,0.460,0.460,0.767,0.92
29,0.428,23.0,0.470,0.470,0.767,0.94
30,0.444,23.0,0.480,0.480,0.767,0.96
31,0.460,22.0,0.500,0.500,0.733,1.00
32,0.475,21.0,0.510,0.510,0.700,1.02
33,0.492,21.0,0.530,0.530,0.700,1.06
34,0.508,20.0,0.540,0.540,0.667,1.08
35,0.524,20.0,0.560,0.560,0.667,1.12
36,0.540,19.0,0.570,0.570,0.633,1.14
37,0.556,19.0,0.590,0.590,0.633,1.18
38,0.572,19.0,0.600,0.600,0.633,1.20
39,0.588,19.0,0.620,0.620,0.633,1.24
40,0.603,19.0,0.630,0.630,0.633,1.26
41,0.619,19.0,0.650,0.650,0.633,1.30
42,0.635,19.0,0.660,0.660,0.633,1.32
43,0.651,20.0,0.680,0.680,0.667,1.36
44,0.667,20.0,0.690,0.690,0.667,1.38
45,0.683,21.0,0.700,0.700,0.700,1.40
46,0.700,21.0,0.720,0.720,0.700,1.44
47,0.716,22.0,0.730,0.730,0.733,1.46
48,0.732,23.0,0.750,0.750,0.767,1.50
49,0.747,24.0,0.760,0.760,0.800,1.52
50,0.763,24.0,0.780,0.780,0.800,1.56
51,0.779,25.0,0.790,0.790,0.833,1.58
52,0.796,26.0,0.810,0.810,0.867,1.62
53,0.812,27.0,0.820,0.820,0.900,1.64
54,0.827,28.0,0.840,0.840,0.933,1.68
55,0.844,28.0,0.850,0.850,0.933,1.70
56,0.860,29.0,0.870,0.870,0.967,1.74
57,0.876,30.0,0.880,0.880,1.000,1.76
58,0.891,30.0,0.890,0.890,1.000,1.78
59,0.908,31.0,0.910,0.910,1.033,1.82
60,0.924,31.0,0.920,0.920,1.033,1.84
61,0.939,32.0,0.940,0.940,1.067,1.88
62,0.956,33.0,0.950,0.950,1.100,1.90
63,0.971,33.0,0.970,0.970,1.100,1.94
64,0.988,34.0,0.980,0.980,1.133,1.96
65,1.003,35.0,1.000,1.000,1.167,2.00
66,1.020,35.0,1.010,1.010,1.167,2.02
67,1.035,36.0,1.030,1.030,1.200,2.06
68,1.052,36.0,1.040,1.040,1.200,2.08
69,1.067,37.0,1.060,1.060,1.233,2.12
70,1.083,37.0,1.070,1.070,1.233,2.14
71,1.100,38.0,1.080,1.080,1.267,2.16
72,1.115,38.0,1.100,1.100,1.267,2.20
73,1.131,38.0,1.110,1.110,1.267,2.22
74,1.147,39.0,1.130,1.130,1.300,2.26
75,1.164,39.0,1.140,1.140,1.300,2.28
76,1.180,40.0,1.160,1.160,1.333,2.32
77,1.195,40.0,1.170,1.170,1.333,2.34
78,1.212,40.0,1.190,1.190,1.333,2.38
79,1.228,41.0,1.200,1.200,1.367,2.40
80,1.244,41.0,1.220,1.220,1.367,2.44
81,1.260,41.0,1.230,1.230,1.367,2.46
82,1.276,42.0,1.240,1.240,1.400,2.48
83,1.292,42.0,1.260,1.260,1.400,2.52
84,1.307,42.0,1.270,1.270,1.400,2.54
85,1.324,43.0,1.290,1.290,1.433,2.58
86,1.339,43.0,1.300,1.300,1.433,2.60
87,1.355,43.0,1.320,1.320,1.433,2.64
88,1.371,44.0,1.330,1.330,1.467,2.66
89,1.388,44.0,1.350,1.350,1.467,2.70
90,1.404,44.0,1.360,1.360,1.467,2.72
91,1.420,44.0,1.380,1.380,1.467,2.76
92,1.436,44.0,1.390,1.390,1.467,2.78
93,1.452,45.0,1.400,1.400,1.500,2.80
94,1.468,45.0,1.420,1.420,1.500,2.84
95,1.484,45.0,1.430,1.430,1.500,2.86
96,1.500,45.0,1.450,1.450,1.500,2.90
97,1.516,45.0,1.460,1.460,1.500,2.92
98,1.532,45.0,1.480,1.480,1.500,2.96
99,1.548,45.0,1.490,1.490,1.500,2.98
100,1.564,45.0,1.510,1.510,1.500,3.02
101,1.580,45.0,1.520,1.520,1.500,3.04
102,1.595,45.0,1.540,1.540,1.500,3.08
103,1.612,45.0,1.550,1.550,1.500,3.10
104,1.628,45.0,1.560,1.560,1.500,3.12
105,1.643,45.0,1.580,1.580,1.500,3.16
106,1.660,45.0,1.590,1.590,1.500,3.18
107,1.676,44.0,1.610,1.610,1.467,3.22
108,1.692,44.0,1.620,1.620,1.467,3.24
109,1.708,44.0,1.640,1.640,1.467,3.28
110,1.724,44.0,1.650,1.650,1.467,3.30
111,1.740,44.0,1.670,1.670,1.467,3.34
112,1.756,43.0,1.680,1.680,1.433,3.36
113,1.771,43.0,1.700,1.700,1.433,3.40
114,1.788,43.0,1.710,1.710,1.433,3.42
115,1.804,43.0,1.720,1.720,1.433,3.44
116,1.819,42.0,1.740,1.740,1.400,3.48
117,1.836,42.0,1.750,1.750,1.400,3.50
118,1.852,42.0,1.770,1.770,1.400,3.54
119,1.868,42.0,1.780,1.780,1.400,3.56
120,1.884,42.0,1.800,1.800,1.400,3.60
121,1.900,42.0,1.810,1.810,1.400,3.62
122,1.916,42.0,1.830,1.830,1.400,3.66
123,1.932,41.0,1.840,1.840,1.367,3.68
124,1.948,41.0,1.860,1.860,1.367,3.72
125,1.964,41.0,1.870,1.870,1.367,3.74
126,1.980,41.0,1.880,1.880,1.367,3.76
127,1.996,41.0,1.900,1.900,1.367,3.80
128,2.012,41.0,1.910,1.910,1.367,3.82
129,2.028,40.0,1.930,1.930,1.333,3.86
130,2.044,40.0,1.940,1.940,1.333,3.88
131,2.060,40.0,1.960,1.960,1.333,3.92
132,2.077,40.0,1.970,1.970,1.333,3.94
133,2.093,40.0,1.990,1.990,1.333,3.98
134,2.109,40.0,2.000,2.000,1.333,4.00
135,2.124,40.0,2.010,2.010,1.333,4.02
136,2.140,40.0,2.030,2.030,1.333,4.06
137,2.156,40.0,2.040,2.040,1.333,4.08
138,2.172,39.0,2.060,2.060,1.300,4.12
139,2.187,39.0,2.070,2.070,1.300,4.14
140,2.204,39.0,2.090,2.090,1.300,4.18
141,2.220,39.0,2.100,2.100,1.300,4.20
142,2.235,39.0,2.120,2.120,1.300,4.24
143,2.252,39.0,2.130,2.130,1.300,4.26
144,2.268,39.0,2.140,2.140,1.300,4.28
145,2.283,39.0,2.160,2.160,1.300,4.32
146,2.300,39.0,2.170,2.170,1.300,4.34
147,2.317,38.0,2.190,2.190,1.267,4.38
148,2.332,38.0,2.200,2.200,1.267,4.40
149,2.348,38.0,2.220,2.220,1.267,4.44
150,2.364,38.0,2.230,2.230,1.267,4.46
151,2.380,38.0,2.250,2.250,1.267,4.50
152,2.396,37.0,2.260,2.260,1.233,4.52
153,2.412,37.0,2.280,2.280,1.233,4.56
154,2.428,37.0,2.290,2.290,1.233,4.58
155,2.445,37.0,2.300,2.300,1.233,4.60
156,2.461,36.0,2.320,2.320,1.200,4.64
157,2.476,36.0,2.330,2.330,1.200,4.66
158,2.492,36.0,2.350,2.350,1.200,4.70
159,2.508,35.0,2.360,2.360,1.167,4.72
160,2.524,35.0,2.380,2.380,1.167,4.76
161,2.540,34.0,2.390,2.390,1.133,4.78
162,2.556,34.0,2.410,2.410,1.133,4.82
163,2.573,34.0,2.420,2.420,1.133,4.84
164,2.589,33.0,2.430,2.430,1.100,4.86
165,2.604,33.0,2.450,2.450,1.100,4.90
166,2.620,32.0,2.460,2.460,1.067,4.92
167,2.636,32.0,2.480,2.480,1.067,4.96
168,2.652,31.0,2.490,2.490,1.033,4.98
169,2.668,31.0,2.510,2.510,1.033,5.02
170,2.684,31.0,2.520,2.520,1.033,5.04
171,2.700,30.0,2.540,2.540,1.000,5.08
172,2.716,30.0,2.550,2.550,1.000,5.10
173,2.732,29.0,2.560,2.560,0.967,5.12
174,2.748,29.0,2.580,2.580,0.967,5.16
175,2.764,28.0,2.590,2.590,0.933,5.18
176,2.780,27.0,2.610,2.610,0.900,5.22
177,2.796,27.0,2.620,2.620,0.900,5.24
178,2.812,26.0,2.640,2.640,0.867,5.28
179,2.828,25.0,2.650,2.650,0.833,5.30
180,2.844,23.0,2.660,2.660,0.767,5.32
181,2.862,21.0,2.680,2.680,0.700,5.36
