일련번호,시간,하중,변위,테이블,강도,변형율
,[sec],[kgf],[mm],[mm],[kgf/mm²],[%]
1,0.000,0.0,0.000,0.000,0.000,0.00
2,0.000,12.0,0.000,0.070,0.400,0.00
3,0.012,13.0,0.080,0.080,0.433,0.16
4,0.027,14.0,0.100,0.100,0.467,0.20
5,0.043,15.0,0.110,0.110,0.500,0.22
6,0.059,16.0,0.130,0.130,0.533,0.26
7,0.075,17.0,0.140,0.140,0.567,0.28
8,0.091,18.0,0.160,0.160,0.600,0.32
9,0.107,19.0,0.170,0.170,0.633,0.34
10,0.123,20.0,0.190,0.190,0.667,0.38
11,0.139,21.0,0.200,0.200,0.700,0.40
12,0.156,22.0,0.220,0.220,0.733,0.44
13,0.171,22.0,0.230,0.230,0.733,0.46
14,0.187,23.0,0.250,0.250,0.767,0.50
15,0.203,23.0,0.260,0.260,0.767,0.52
16,0.219,23.0,0.280,0.280,0.767,0.56
17,0.235,24.0,0.290,0.290,0.800,0.58
18,0.250,24.0,0.310,0.310,0.800,0.62
19,0.267,25.0,0.320,0.320,0.833,0.64
20,0.283,25.0,0.330,0.330,0.833,0.66
21,0.299,26.0,0.350,0.350,0.867,0.70
22,0.315,26.0,0.360,0.360,0.867,0.72
23,0.331,26.0,0.380,0.380,0.867,0.76
24,0.347,27.0,0.390,0.390,0.900,0.78
25,0.364,27.0,0.410,0.410,0.900,0.82
26,0.379,28.0,0.420,0.420,0.933,0.84
27,0.395,29.0,0.440,0.440,0.967,0.88
28,0.411,29.0,0.450,0.450,0.967,0.90
29,0.427,28.0,0.470,0.470,0.933,0.94
30,0.443,27.0,0.480,0.480,0.900,0.96
31,0.460,26.0,0.500,0.500,0.867,1.00
32,0.476,25.0,0.510,0.510,0.833,1.02
33,0.491,25.0,0.530,0.530,0.833,1.06
34,0.507,24.0,0.540,0.540,0.800,1.08
35,0.523,24.0,0.550,0.550,0.800,1.10
36,0.539,24.0,0.570,0.570,0.800,1.14
37,0.555,24.0,0.580,0.580,0.800,1.16
38,0.571,24.0,0.600,0.600,0.800,1.20
39,0.587,24.0,0.610,0.610,0.800,1.22
40,0.603,25.0,0.630,0.630,0.833,1.26
41,0.619,25.0,0.640,0.640,0.833,1.28
42,0.636,26.0,0.660,0.660,0.867,1.32
43,0.652,27.0,0.670,0.670,0.900,1.34
44,0.667,27.0,0.690,0.690,0.900,1.38
45,0.683,28.0,0.700,0.700,0.933,1.40
46,0.699,29.0,0.720,0.720,0.967,1.44
47,0.715,30.0,0.730,0.730,1.000,1.46
48,0.732,31.0,0.750,0.750,1.033,1.50
49,0.747,32.0,0.760,0.760,1.067,1.52
50,0.764,33.0,0.770,0.770,1.100,1.54
51,0.780,34.0,0.790,0.790,1.133,1.58
52,0.796,35.0,0.800,0.800,1.167,1.60
53,0.811,35.0,0.820,0.820,1.167,1.64
54,0.827,36.0,0.830,0.830,1.200,1.66
55,0.843,37.0,0.850,0.850,1.233,1.70
56,0.859,38.0,0.860,0.860,1.267,1.72
57,0.875,39.0,0.880,0.880,1.300,1.76
58,0.892,40.0,0.890,0.890,1.333,1.78
59,0.908,40.0,0.910,0.910,1.333,1.82
60,0.924,41.0,0.920,0.920,1.367,1.84
61,0.939,42.0,0.940,0.940,1.400,1.88
62,0.955,43.0,0.950,0.950,1.433,1.90
63,0.971,44.0,0.960,0.960,1.467,1.92
64,0.987,44.0,0.980,0.980,1.467,1.96
65,1.003,45.0,0.990,0.990,1.500,1.98
66,1.019,46.0,1.010,1.010,1.533,2.02
67,1.035,46.0,1.020,1.020,1.533,2.04
68,1.051,47.0,1.040,1.040,1.567,2.08
69,1.067,48.0,1.050,1.050,1.600,2.10
70,1.083,48.0,1.070,1.070,1.600,2.14
71,1.099,49.0,1.080,1.080,1.633,2.16
72,1.115,49.0,1.100,1.100,1.633,2.20
73,1.131,50.0,1.110,1.110,1.667,2.22
74,1.148,50.0,1.120,1.120,1.667,2.24
75,1.163,51.0,1.140,1.140,1.700,2.28
76,1.180,51.0,1.150,1.150,1.700,2.30
77,1.196,51.0,1.170,1.170,1.700,2.34
78,1.212,51.0,1.180,1.180,1.700,2.36
79,1.227,51.0,1.200,1.200,1.700,2.40
80,1.244,51.0,1.210,1.210,1.700,2.42
81,1.259,51.0,1.230,1.230,1.700,2.46
82,1.275,51.0,1.240,1.240,1.700,2.48
83,1.292,51.0,1.260,1.260,1.700,2.52
84,1.308,50.0,1.270,1.270,1.667,2.54
85,1.324,50.0,1.290,1.290,1.667,2.58
86,1.340,49.0,1.300,1.300,1.633,2.60
87,1.356,49.0,1.310,1.310,1.633,2.62
88,1.372,48.0,1.330,1.330,1.600,2.66
89,1.388,48.0,1.340,1.340,1.600,2.68
90,1.403,48.0,1.360,1.360,1.600,2.72
91,1.420,47.0,1.370,1.370,1.567,2.74
92,1.436,47.0,1.390,1.390,1.567,2.78
93,1.452,47.0,1.400,1.400,1.567,2.80
94,1.468,47.0,1.420,1.420,1.567,2.84
95,1.484,46.0,1.430,1.430,1.533,2.86
96,1.499,46.0,1.450,1.450,1.533,2.90
97,1.515,46.0,1.460,1.460,1.533,2.92
98,1.531,46.0,1.470,1.470,1.533,2.94
99,1.547,45.0,1.490,1.490,1.500,2.98
100,1.563,45.0,1.500,1.500,1.500,3.00
101,1.579,45.0,1.520,1.520,1.500,3.04
102,1.595,45.0,1.530,1.530,1.500,3.06
103,1.611,45.0,1.550,1.550,1.500,3.10
104,1.628,44.0,1.560,1.560,1.467,3.12
105,1.643,44.0,1.580,1.580,1.467,3.16
106,1.660,44.0,1.590,1.590,1.467,3.18
107,1.675,43.0,1.610,1.610,1.433,3.22
108,1.692,43.0,1.620,1.620,1.433,3.24
109,1.708,43.0,1.630,1.630,1.433,3.26
110,1.724,42.0,1.650,1.650,1.400,3.30
111,1.739,42.0,1.660,1.660,1.400,3.32
112,1.755,41.0,1.680,1.680,1.367,3.36
113,1.771,41.0,1.690,1.690,1.367,3.38
114,1.787,41.0,1.710,1.710,1.367,3.42
115,1.804,40.0,1.720,1.720,1.333,3.44
116,1.819,39.0,1.740,1.740,1.300,3.48
117,1.836,38.0,1.750,1.750,1.267,3.50
118,1.852,37.0,1.770,1.770,1.233,3.54
119,1.868,35.0,1.780,1.780,1.167,3.56
120,1.884,32.0,1.790,1.790,1.067,3.58
121,1.900,27.0,1.810,1.810,0.900,3.62
122,1.915,20.0,1.820,1.820,0.667,3.64
