일련번호,시간,하중,변위,테이블,강도,변형율
,[sec],[kgf],[mm],[mm],[kgf/mm²],[%]
1,0.000,0.0,0.000,0.000,0.000,0.00
2,0.000,10.0,0.000,0.070,0.333,0.00
3,0.010,10.0,0.080,0.080,0.333,0.16
4,0.026,11.0,0.100,0.100,0.367,0.20
5,0.042,12.0,0.110,0.110,0.400,0.22
6,0.058,13.0,0.130,0.130,0.433,0.26
7,0.075,13.0,0.140,0.140,0.433,0.28
8,0.090,14.0,0.160,0.160,0.467,0.32
9,0.107,14.0,0.170,0.170,0.467,0.34
10,0.123,15.0,0.190,0.190,0.500,0.38
11,0.139,15.0,0.200,0.200,0.500,0.40
12,0.154,16.0,0.220,0.220,0.533,0.44
13,0.170,17.0,0.230,0.230,0.567,0.46
14,0.186,18.0,0.250,0.250,0.600,0.50
15,0.202,18.0,0.260,0.260,0.600,0.52
16,0.219,19.0,0.280,0.280,0.633,0.56
17,0.235,19.0,0.290,0.290,0.633,0.58
18,0.251,19.0,0.300,0.300,0.633,0.60
19,0.267,19.0,0.320,0.320,0.633,0.64
20,0.283,19.0,0.330,0.330,0.633,0.66
21,0.299,19.0,0.350,0.350,0.633,0.70
22,0.315,18.0,0.360,0.360,0.600,0.72
23,0.330,18.0,0.380,0.380,0.600,0.76
24,0.346,18.0,0.390,0.390,0.600,0.78
25,0.362,18.0,0.410,0.410,0.600,0.82
26,0.378,18.0,0.420,0.420,0.600,0.84
27,0.394,18.0,0.440,0.440,0.600,0.88
28,0.411,18.0,0.450,0.450,0.600,0.90
29,0.427,18.0,0.470,0.470,0.600,0.94
30,0.443,18.0,0.480,0.480,0.600,0.96
31,0.459,18.0,0.500,0.500,0.600,1.00
32,0.475,18.0,0.510,0.510,0.600,1.02
33,0.491,18.0,0.520,0.520,0.600,1.04
34,0.507,18.0,0.540,0.540,0.600,1.08
35,0.523,18.0,0.550,0.550,0.600,1.10
36,0.539,18.0,0.570,0.570,0.600,1.14
37,0.555,18.0,0.580,0.580,0.600,1.16
38,0.570,19.0,0.600,0.600,0.633,1.20
39,0.587,19.0,0.610,0.610,0.633,1.22
40,0.602,20.0,0.630,0.630,0.667,1.26
41,0.619,20.0,0.640,0.640,0.667,1.28
42,0.634,21.0,0.660,0.660,0.700,1.32
43,0.650,21.0,0.670,0.670,0.700,1.34
44,0.667,22.0,0.690,0.690,0.733,1.38
45,0.683,23.0,0.700,0.700,0.767,1.40
46,0.699,24.0,0.720,0.720,0.800,1.44
47,0.715,25.0,0.730,0.730,0.833,1.46
48,0.731,26.0,0.740,0.740,0.867,1.48
49,0.747,26.0,0.760,0.760,0.867,1.52
50,0.763,27.0,0.770,0.770,0.900,1.54
51,0.778,28.0,0.790,0.790,0.933,1.58
52,0.795,29.0,0.800,0.800,0.967,1.60
53,0.810,29.0,0.820,0.820,0.967,1.64
54,0.827,30.0,0.830,0.830,1.000,1.66
55,0.843,31.0,0.850,0.850,1.033,1.70
56,0.858,31.0,0.860,0.860,1.033,1.72
57,0.874,32.0,0.880,0.880,1.067,1.76
58,0.890,33.0,0.890,0.890,1.100,1.78
59,0.907,34.0,0.910,0.910,1.133,1.82
60,0.923,34.0,0.920,0.920,1.133,1.84
61,0.939,35.0,0.930,0.930,1.167,1.86
62,0.955,35.0,0.950,0.950,1.167,1.90
63,0.971,36.0,0.960,0.960,1.200,1.92
64,0.987,37.0,0.980,0.980,1.233,1.96
65,1.003,37.0,0.990,0.990,1.233,1.98
66,1.018,37.0,1.010,1.010,1.233,2.02
67,1.035,38.0,1.020,1.020,1.267,2.04
68,1.051,38.0,1.040,1.040,1.267,2.08
69,1.067,39.0,1.050,1.050,1.300,2.10
70,1.083,39.0,1.070,1.070,1.300,2.14
71,1.099,39.0,1.080,1.080,1.300,2.16
72,1.114,40.0,1.100,1.100,1.333,2.20
73,1.130,40.0,1.110,1.110,1.333,2.22
74,1.147,41.0,1.120,1.120,1.367,2.24
75,1.163,41.0,1.140,1.140,1.367,2.28
76,1.179,41.0,1.150,1.150,1.367,2.30
77,1.195,42.0,1.170,1.170,1.400,2.34
78,1.210,42.0,1.180,1.180,1.400,2.36
79,1.227,42.0,1.200,1.200,1.400,2.40
80,1.242,43.0,1.210,1.210,1.433,2.42
81,1.259,43.0,1.230,1.230,1.433,2.46
82,1.274,43.0,1.240,1.240,1.433,2.48
83,1.291,43.0,1.260,1.260,1.433,2.52
84,1.307,43.0,1.270,1.270,1.433,2.54
85,1.323,44.0,1.290,1.290,1.467,2.58
86,1.339,44.0,1.300,1.300,1.467,2.60
87,1.355,44.0,1.310,1.310,1.467,2.62
88,1.371,44.0,1.330,1.330,1.467,2.66
89,1.387,44.0,1.340,1.340,1.467,2.68
90,1.402,44.0,1.360,1.360,1.467,2.72
91,1.419,44.0,1.370,1.370,1.467,2.74
92,1.434,44.0,1.390,1.390,1.467,2.78
93,1.451,44.0,1.400,1.400,1.467,2.80
94,1.467,44.0,1.420,1.420,1.467,2.84
95,1.483,44.0,1.430,1.430,1.467,2.86
96,1.499,44.0,1.450,1.450,1.467,2.90
97,1.515,44.0,1.460,1.460,1.467,2.92
98,1.531,43.0,1.470,1.470,1.433,2.94
99,1.547,43.0,1.490,1.490,1.433,2.98
100,1.563,43.0,1.500,1.500,1.433,3.00
101,1.579,42.0,1.520,1.520,1.400,3.04
102,1.595,42.0,1.530,1.530,1.400,3.06
103,1.611,42.0,1.550,1.550,1.400,3.10
104,1.627,42.0,1.560,1.560,1.400,3.12
105,1.642,41.0,1.580,1.580,1.367,3.16
106,1.658,41.0,1.590,1.590,1.367,3.18
107,1.675,41.0,1.610,1.610,1.367,3.22
108,1.691,41.0,1.620,1.620,1.367,3.24
109,1.707,40.0,1.630,1.630,1.333,3.26
110,1.723,40.0,1.650,1.650,1.333,3.30
111,1.739,40.0,1.660,1.660,1.333,3.32
112,1.755,40.0,1.680,1.680,1.333,3.36
113,1.770,40.0,1.690,1.690,1.333,3.38
114,1.786,39.0,1.710,1.710,1.300,3.42
115,1.803,39.0,1.720,1.720,1.300,3.44
116,1.819,39.0,1.740,1.740,1.300,3.48
117,1.835,39.0,1.750,1.750,1.300,3.50
118,1.851,39.0,1.770,1.770,1.300,3.54
119,1.867,38.0,1.780,1.780,1.267,3.56
120,1.883,38.0,1.790,1.790,1.267,3.58
121,1.899,38.0,1.810,1.810,1.267,3.62
122,1.916,38.0,1.820,1.820,1.267,3.64
123,1.931,38.0,1.840,1.840,1.267,3.68
124,1.947,38.0,1.850,1.850,1.267,3.70
125,1.963,37.0,1.870,1.870,1.233,3.74
126,1.979,37.0,1.880,1.880,1.233,3.76
127,1.995,37.0,1.900,1.900,1.233,3.80
128,2.011,36.0,1.910,1.910,1.200,3.82
129,2.027,36.0,1.920,1.920,1.200,3.84
130,2.043,36.0,1.940,1.940,1.200,3.88
131,2.059,35.0,1.950,1.950,1.167,3.90
132,2.075,35.0,1.970,1.970,1.167,3.94
133,2.091,34.0,1.980,1.980,1.133,3.96
134,2.107,34.0,2.000,2.000,1.133,4.00
135,2.123,33.0,2.010,2.010,1.100,4.02
136,2.140,33.0,2.030,2.030,1.100,4.06
137,2.155,32.0,2.040,2.040,1.067,4.08
138,2.171,31.0,2.060,2.060,1.033,4.12
139,2.188,30.0,2.070,2.070,1.000,4.14
140,2.203,29.0,2.080,2.080,0.967,4.16
141,2.219,26.0,2.100,2.100,0.867,4.20
142,2.237,22.0,2.110,2.110,0.733,4.22
