일련번호,시간,하중,변위,테이블,강도,변형율
,[sec],[kgf],[mm],[mm],[kgf/mm²],[%]
1,0.000,0.0,0.000,0.000,0.000,0.00
2,0.000,10.0,0.000,0.070,0.333,0.00
3,0.011,10.0,0.080,0.080,0.333,0.16
4,0.026,11.0,0.090,0.090,0.367,0.18
5,0.043,12.0,0.110,0.110,0.400,0.22
6,0.058,12.0,0.120,0.120,0.400,0.24
7,0.074,13.0,0.140,0.140,0.433,0.28
8,0.090,14.0,0.150,0.150,0.467,0.30
9,0.107,14.0,0.170,0.170,0.467,0.34
10,0.122,15.0,0.180,0.180,0.500,0.36
11,0.138,15.0,0.200,0.200,0.500,0.40
12,0.154,16.0,0.210,0.210,0.533,0.42
13,0.170,16.0,0.230,0.230,0.533,0.46
14,0.186,16.0,0.240,0.240,0.533,0.48
15,0.202,17.0,0.260,0.260,0.567,0.52
16,0.218,17.0,0.270,0.270,0.567,0.54
17,0.234,17.0,0.290,0.290,0.567,0.58
18,0.250,18.0,0.300,0.300,0.600,0.60
19,0.266,18.0,0.320,0.320,0.600,0.64
20,0.282,18.0,0.330,0.330,0.600,0.66
21,0.299,18.0,0.350,0.350,0.600,0.70
22,0.313,19.0,0.360,0.360,0.633,0.72
23,0.331,19.0,0.370,0.370,0.633,0.74
24,0.346,20.0,0.390,0.390,0.667,0.78
25,0.362,20.0,0.400,0.400,0.667,0.80
26,0.378,21.0,0.420,0.420,0.700,0.84
27,0.395,22.0,0.430,0.430,0.733,0.86
28,0.410,22.0,0.450,0.450,0.733,0.90
29,0.426,22.0,0.460,0.460,0.733,0.92
30,0.442,22.0,0.480,0.480,0.733,0.96
31,0.458,21.0,0.490,0.490,0.700,0.98
32,0.473,21.0,0.510,0.510,0.700,1.02
33,0.490,20.0,0.520,0.520,0.667,1.04
34,0.506,20.0,0.540,0.540,0.667,1.08
35,0.522,19.0,0.550,0.550,0.633,1.10
36,0.539,19.0,0.570,0.570,0.633,1.14
37,0.554,19.0,0.580,0.580,0.633,1.16
38,0.570,19.0,0.600,0.600,0.633,1.20
39,0.587,19.0,0.610,0.610,0.633,1.22
40,0.602,19.0,0.620,0.620,0.633,1.24
41,0.618,19.0,0.640,0.640,0.633,1.28
42,0.634,20.0,0.650,0.650,0.667,1.30
43,0.650,20.0,0.670,0.670,0.667,1.34
44,0.667,21.0,0.680,0.680,0.700,1.36
45,0.682,21.0,0.700,0.700,0.700,1.40
46,0.698,22.0,0.710,0.710,0.733,1.42
47,0.714,23.0,0.730,0.730,0.767,1.46
48,0.731,23.0,0.740,0.740,0.767,1.48
49,0.747,24.0,0.760,0.760,0.800,1.52
50,0.762,25.0,0.770,0.770,0.833,1.54
51,0.778,26.0,0.790,0.790,0.867,1.58
52,0.794,26.0,0.800,0.800,0.867,1.60
53,0.811,27.0,0.810,0.810,0.900,1.62
54,0.826,28.0,0.830,0.830,0.933,1.66
55,0.842,28.0,0.840,0.840,0.933,1.68
56,0.858,29.0,0.860,0.860,0.967,1.72
57,0.874,30.0,0.870,0.870,1.000,1.74
58,0.890,30.0,0.890,0.890,1.000,1.78
59,0.906,31.0,0.900,0.900,1.033,1.80
60,0.923,32.0,0.920,0.920,1.067,1.84
61,0.938,32.0,0.930,0.930,1.067,1.86
62,0.954,33.0,0.950,0.950,1.100,1.90
63,0.970,33.0,0.960,0.960,1.100,1.92
64,0.987,34.0,0.980,0.980,1.133,1.96
65,1.002,34.0,0.990,0.990,1.133,1.98
66,1.019,34.0,1.000,1.000,1.133,2.00
67,1.034,35.0,1.020,1.020,1.167,2.04
68,1.051,35.0,1.030,1.030,1.167,2.06
69,1.066,36.0,1.050,1.050,1.200,2.10
70,1.083,36.0,1.060,1.060,1.200,2.12
71,1.098,36.0,1.080,1.080,1.200,2.16
72,1.115,37.0,1.090,1.090,1.233,2.18
73,1.130,37.0,1.110,1.110,1.233,2.22
74,1.146,37.0,1.120,1.120,1.233,2.24
75,1.163,37.0,1.140,1.140,1.233,2.28
76,1.179,37.0,1.150,1.150,1.233,2.30
77,1.195,37.0,1.170,1.170,1.233,2.34
78,1.211,37.0,1.180,1.180,1.233,2.36
79,1.227,37.0,1.190,1.190,1.233,2.38
80,1.243,37.0,1.210,1.210,1.233,2.42
81,1.258,36.0,1.220,1.220,1.200,2.44
82,1.274,36.0,1.240,1.240,1.200,2.48
83,1.291,36.0,1.250,1.250,1.200,2.50
84,1.307,35.0,1.270,1.270,1.167,2.54
85,1.323,35.0,1.280,1.280,1.167,2.56
86,1.339,35.0,1.300,1.300,1.167,2.60
87,1.355,35.0,1.310,1.310,1.167,2.62
88,1.371,34.0,1.330,1.330,1.133,2.66
89,1.386,34.0,1.340,1.340,1.133,2.68
90,1.403,34.0,1.350,1.350,1.133,2.70
91,1.418,33.0,1.370,1.370,1.100,2.74
92,1.434,33.0,1.380,1.380,1.100,2.76
93,1.451,33.0,1.400,1.400,1.100,2.80
94,1.466,33.0,1.410,1.410,1.100,2.82
95,1.483,32.0,1.430,1.430,1.067,2.86
96,1.498,32.0,1.440,1.440,1.067,2.88
97,1.514,32.0,1.460,1.460,1.067,2.92
98,1.530,31.0,1.470,1.470,1.033,2.94
99,1.546,31.0,1.490,1.490,1.033,2.98
100,1.563,30.0,1.500,1.500,1.000,3.00
101,1.579,30.0,1.520,1.520,1.000,3.04
102,1.595,30.0,1.530,1.530,1.000,3.06
103,1.612,29.0,1.540,1.540,0.967,3.08
104,1.626,29.0,1.560,1.560,0.967,3.12
105,1.642,28.0,1.570,1.570,0.933,3.14
106,1.659,28.0,1.590,1.590,0.933,3.18
107,1.674,27.0,1.600,1.600,0.900,3.20
108,1.690,26.0,1.620,1.620,0.867,3.24
109,1.707,26.0,1.630,1.630,0.867,3.26
110,1.722,25.0,1.650,1.650,0.833,3.30
111,1.739,25.0,1.660,1.660,0.833,3.32
112,1.755,24.0,1.680,1.680,0.800,3.36
113,1.771,24.0,1.690,1.690,0.800,3.38
114,1.787,23.0,1.700,1.700,0.767,3.40
115,1.802,22.0,1.720,1.720,0.733,3.44
116,1.819,22.0,1.730,1.730,0.733,3.46
117,1.835,21.0,1.750,1.750,0.700,3.50
118,1.851,21.0,1.760,1.760,0.700,3.52
119,1.867,20.0,1.780,1.780,0.667,3.56
120,1.883,20.0,1.790,1.790,0.667,3.58
121,1.899,19.0,1.810,1.810,0.633,3.62
122,1.916,18.0,1.820,1.820,0.600,3.64
