일련번호,시간,하중,변위,테이블,강도,변형율
,[sec],[kgf],[mm],[mm],[kgf/mm²],[%]
1,0.000,0.0,0.000,0.000,0.000,0.00
2,0.000,11.0,0.000,0.070,0.367,0.00
3,0.010,12.0,0.080,0.080,0.400,0.16
4,0.027,13.0,0.100,0.100,0.433,0.20
5,0.043,14.0,0.110,0.110,0.467,0.22
6,0.059,14.0,0.130,0.130,0.467,0.26
7,0.075,15.0,0.140,0.140,0.500,0.28
8,0.091,16.0,0.160,0.160,0.533,0.32
9,0.106,17.0,0.170,0.170,0.567,0.34
10,0.123,18.0,0.190,0.190,0.600,0.38
11,0.138,19.0,0.200,0.200,0.633,0.40
12,0.155,19.0,0.220,0.220,0.633,0.44
13,0.171,20.0,0.230,0.230,0.667,0.46
14,0.187,21.0,0.250,0.250,0.700,0.50
15,0.203,21.0,0.260,0.260,0.700,0.52
16,0.219,22.0,0.280,0.280,0.733,0.56
17,0.235,22.0,0.290,0.290,0.733,0.58
18,0.251,23.0,0.310,0.310,0.767,0.62
19,0.267,23.0,0.320,0.320,0.767,0.64
20,0.283,23.0,0.330,0.330,0.767,0.66
21,0.299,23.0,0.350,0.350,0.767,0.70
22,0.315,23.0,0.360,0.360,0.767,0.72
23,0.331,24.0,0.380,0.380,0.800,0.76
24,0.347,24.0,0.390,0.390,0.800,0.78
25,0.363,25.0,0.410,0.410,0.833,0.82
26,0.379,26.0,0.420,0.420,0.867,0.84
27,0.395,27.0,0.440,0.440,0.900,0.88
28,0.411,27.0,0.450,0.450,0.900,0.90
29,0.426,28.0,0.470,0.470,0.933,0.94
30,0.443,29.0,0.480,0.480,0.967,0.96
31,0.458,30.0,0.500,0.500,1.000,1.00
32,0.475,30.0,0.510,0.510,1.000,1.02
33,0.491,31.0,0.530,0.530,1.033,1.06
34,0.507,32.0,0.540,0.540,1.067,1.08
35,0.523,32.0,0.550,0.550,1.067,1.10
36,0.538,33.0,0.570,0.570,1.100,1.14
37,0.554,33.0,0.580,0.580,1.100,1.16
38,0.571,29.0,0.600,0.600,0.967,1.20
39,0.587,27.0,0.610,0.610,0.900,1.22
40,0.603,26.0,0.630,0.630,0.867,1.26
41,0.619,25.0,0.640,0.640,0.833,1.28
42,0.635,25.0,0.660,0.660,0.833,1.32
43,0.651,25.0,0.670,0.670,0.833,1.34
44,0.667,25.0,0.690,0.690,0.833,1.38
45,0.683,25.0,0.700,0.700,0.833,1.40
46,0.700,25.0,0.720,0.720,0.833,1.44
47,0.716,26.0,0.730,0.730,0.867,1.46
48,0.732,27.0,0.750,0.750,0.900,1.50
49,0.747,27.0,0.760,0.760,0.900,1.52
50,0.763,28.0,0.770,0.770,0.933,1.54
51,0.779,29.0,0.790,0.790,0.967,1.58
52,0.795,30.0,0.800,0.800,1.000,1.60
53,0.811,31.0,0.820,0.820,1.033,1.64
54,0.827,31.0,0.830,0.830,1.033,1.66
55,0.843,32.0,0.850,0.850,1.067,1.70
56,0.859,33.0,0.860,0.860,1.100,1.72
57,0.876,33.0,0.880,0.880,1.100,1.76
58,0.892,34.0,0.890,0.890,1.133,1.78
59,0.907,35.0,0.910,0.910,1.167,1.82
60,0.923,35.0,0.920,0.920,1.167,1.84
61,0.939,36.0,0.940,0.940,1.200,1.88
62,0.956,36.0,0.950,0.950,1.200,1.90
63,0.971,37.0,0.960,0.960,1.233,1.92
64,0.987,37.0,0.980,0.980,1.233,1.96
65,1.003,38.0,0.990,0.990,1.267,1.98
66,1.019,38.0,1.010,1.010,1.267,2.02
67,1.035,39.0,1.020,1.020,1.300,2.04
68,1.051,39.0,1.040,1.040,1.300,2.08
69,1.067,39.0,1.050,1.050,1.300,2.10
70,1.083,40.0,1.070,1.070,1.333,2.14
71,1.100,40.0,1.080,1.080,1.333,2.16
72,1.115,41.0,1.100,1.100,1.367,2.20
73,1.131,41.0,1.110,1.110,1.367,2.22
74,1.147,42.0,1.120,1.120,1.400,2.24
75,1.164,42.0,1.140,1.140,1.400,2.28
76,1.179,42.0,1.150,1.150,1.400,2.30
77,1.195,43.0,1.170,1.170,1.433,2.34
78,1.211,43.0,1.180,1.180,1.433,2.36
79,1.227,44.0,1.200,1.200,1.467,2.40
80,1.243,44.0,1.210,1.210,1.467,2.42
81,1.259,44.0,1.230,1.230,1.467,2.46
82,1.275,44.0,1.240,1.240,1.467,2.48
83,1.291,45.0,1.260,1.260,1.500,2.52
84,1.307,45.0,1.270,1.270,1.500,2.54
85,1.323,45.0,1.290,1.290,1.500,2.58
86,1.339,46.0,1.300,1.300,1.533,2.60
87,1.356,46.0,1.310,1.310,1.533,2.62
88,1.372,46.0,1.330,1.330,1.533,2.66
89,1.387,46.0,1.340,1.340,1.533,2.68
90,1.404,47.0,1.360,1.360,1.567,2.72
91,1.420,47.0,1.370,1.370,1.567,2.74
92,1.435,47.0,1.390,1.390,1.567,2.78
93,1.452,47.0,1.400,1.400,1.567,2.80
94,1.467,48.0,1.420,1.420,1.600,2.84
95,1.484,48.0,1.430,1.430,1.600,2.86
96,1.499,48.0,1.450,1.450,1.600,2.90
97,1.515,48.0,1.460,1.460,1.600,2.92
98,1.531,48.0,1.470,1.470,1.600,2.94
99,1.547,48.0,1.490,1.490,1.600,2.98
100,1.563,48.0,1.500,1.500,1.600,3.00
101,1.579,48.0,1.520,1.520,1.600,3.04
102,1.594,48.0,1.530,1.530,1.600,3.06
103,1.611,48.0,1.550,1.550,1.600,3.10
104,1.627,48.0,1.560,1.560,1.600,3.12
105,1.643,48.0,1.580,1.580,1.600,3.16
106,1.659,47.0,1.590,1.590,1.567,3.18
107,1.676,47.0,1.610,1.610,1.567,3.22
108,1.691,47.0,1.620,1.620,1.567,3.24
109,1.708,46.0,1.630,1.630,1.533,3.26
110,1.723,46.0,1.650,1.650,1.533,3.30
111,1.740,46.0,1.660,1.660,1.533,3.32
112,1.756,45.0,1.680,1.680,1.500,3.36
113,1.772,45.0,1.690,1.690,1.500,3.38
114,1.788,44.0,1.710,1.710,1.467,3.42
115,1.804,44.0,1.720,1.720,1.467,3.44
116,1.819,44.0,1.740,1.740,1.467,3.48
117,1.836,43.0,1.750,1.750,1.433,3.50
118,1.851,43.0,1.770,1.770,1.433,3.54
119,1.867,42.0,1.780,1.780,1.400,3.56
120,1.883,42.0,1.790,1.790,1.400,3.58
121,1.899,41.0,1.810,1.810,1.367,3.62
122,1.915,41.0,1.820,1.820,1.367,3.64
123,1.932,41.0,1.840,1.840,1.367,3.68
124,1.947,40.0,1.850,1.850,1.333,3.70
125,1.963,40.0,1.870,1.870,1.333,3.74
126,1.979,39.0,1.880,1.880,1.300,3.76
127,1.995,39.0,1.900,1.900,1.300,3.80
128,2.011,38.0,1.910,1.910,1.267,3.82
129,2.027,38.0,1.920,1.920,1.267,3.84
130,2.044,37.0,1.940,1.940,1.233,3.88
131,2.059,36.0,1.950,1.950,1.200,3.90
132,2.075,35.0,1.970,1.970,1.167,3.94
133,2.091,34.0,1.980,1.980,1.133,3.96
134,2.107,34.0,2.000,2.000,1.133,4.00
135,2.123,33.0,2.010,2.010,1.100,4.02
136,2.140,32.0,2.030,2.030,1.067,4.06
137,2.155,31.0,2.040,2.040,1.033,4.08
138,2.172,31.0,2.060,2.060,1.033,4.12
139,2.187,30.0,2.070,2.070,1.000,4.14
140,2.204,29.0,2.080,2.080,0.967,4.16
141,2.219,29.0,2.100,2.100,0.967,4.20
142,2.236,28.0,2.110,2.110,0.933,4.22
143,2.252,28.0,2.130,2.130,0.933,4.26
144,2.268,27.0,2.140,2.140,0.900,4.28
145,2.284,27.0,2.160,2.160,0.900,4.32
146,2.300,26.0,2.170,2.170,0.867,4.34
147,2.316,26.0,2.190,2.190,0.867,4.38
148,2.332,25.0,2.200,2.200,0.833,4.40
149,2.348,25.0,2.210,2.210,0.833,4.42
150,2.364,25.0,2.230,2.230,0.833,4.46
151,2.381,24.0,2.240,2.240,0.800,4.48
