일련번호,시간,하중,변위,테이블,강도,변형율
,[sec],[kgf],[mm],[mm],[kgf/mm²],[%]
1,0.000,0.0,0.000,0.000,0.000,0.00
2,0.000,10.0,0.000,0.070,0.333,0.00
3,0.011,11.0,0.080,0.080,0.367,0.16
4,0.027,12.0,0.090,0.090,0.400,0.18
5,0.043,13.0,0.110,0.110,0.433,0.22
6,0.059,14.0,0.120,0.120,0.467,0.24
7,0.075,14.0,0.140,0.140,0.467,0.28
8,0.091,15.0,0.150,0.150,0.500,0.30
9,0.108,16.0,0.170,0.170,0.533,0.34
10,0.123,16.0,0.180,0.180,0.533,0.36
11,0.139,16.0,0.200,0.200,0.533,0.40
12,0.154,16.0,0.210,0.210,0.533,0.42
13,0.170,17.0,0.230,0.230,0.567,0.46
14,0.187,17.0,0.240,0.240,0.567,0.48
15,0.203,17.0,0.260,0.260,0.567,0.52
16,0.219,18.0,0.270,0.270,0.600,0.54
17,0.235,18.0,0.290,0.290,0.600,0.58
18,0.251,19.0,0.300,0.300,0.633,0.60
19,0.267,19.0,0.320,0.320,0.633,0.64
20,0.283,20.0,0.330,0.330,0.667,0.66
21,0.298,20.0,0.350,0.350,0.667,0.70
22,0.315,21.0,0.360,0.360,0.700,0.72
23,0.331,22.0,0.370,0.370,0.733,0.74
24,0.347,23.0,0.390,0.390,0.767,0.78
25,0.364,23.0,0.400,0.400,0.767,0.80
26,0.379,24.0,0.420,0.420,0.800,0.84
27,0.395,25.0,0.430,0.430,0.833,0.86
28,0.411,25.0,0.450,0.450,0.833,0.90
29,0.426,26.0,0.460,0.460,0.867,0.92
30,0.443,26.0,0.480,0.480,0.867,0.96
31,0.460,24.0,0.490,0.490,0.800,0.98
32,0.476,22.0,0.510,0.510,0.733,1.02
33,0.492,21.0,0.520,0.520,0.700,1.04
34,0.506,20.0,0.540,0.540,0.667,1.08
35,0.523,19.0,0.550,0.550,0.633,1.10
36,0.540,19.0,0.570,0.570,0.633,1.14
37,0.555,19.0,0.580,0.580,0.633,1.16
38,0.571,19.0,0.590,0.590,0.633,1.18
39,0.587,19.0,0.610,0.610,0.633,1.22
40,0.603,20.0,0.620,0.620,0.667,1.24
41,0.619,21.0,0.640,0.640,0.700,1.28
42,0.635,21.0,0.650,0.650,0.700,1.30
43,0.651,22.0,0.670,0.670,0.733,1.34
44,0.667,22.0,0.680,0.680,0.733,1.36
45,0.683,23.0,0.700,0.700,0.767,1.40
46,0.699,24.0,0.710,0.710,0.800,1.42
47,0.715,25.0,0.730,0.730,0.833,1.46
48,0.731,26.0,0.740,0.740,0.867,1.48
49,0.747,27.0,0.760,0.760,0.900,1.52
50,0.763,27.0,0.770,0.770,0.900,1.54
51,0.779,28.0,0.790,0.790,0.933,1.58
52,0.795,29.0,0.800,0.800,0.967,1.60
53,0.811,30.0,0.810,0.810,1.000,1.62
54,0.827,30.0,0.830,0.830,1.000,1.66
55,0.843,31.0,0.840,0.840,1.033,1.68
56,0.859,32.0,0.860,0.860,1.067,1.72
57,0.875,32.0,0.870,0.870,1.067,1.74
58,0.891,33.0,0.890,0.890,1.100,1.78
59,0.907,34.0,0.900,0.900,1.133,1.80
60,0.923,34.0,0.920,0.920,1.133,1.84
61,0.939,35.0,0.930,0.930,1.167,1.86
62,0.955,36.0,0.950,0.950,1.200,1.90
63,0.971,36.0,0.960,0.960,1.200,1.92
64,0.987,37.0,0.980,0.980,1.233,1.96
65,1.003,37.0,0.990,0.990,1.233,1.98
66,1.020,38.0,1.000,1.000,1.267,2.00
67,1.036,38.0,1.020,1.020,1.267,2.04
68,1.052,38.0,1.030,1.030,1.267,2.06
69,1.068,38.0,1.050,1.050,1.267,2.10
70,1.084,39.0,1.060,1.060,1.300,2.12
71,1.100,39.0,1.080,1.080,1.300,2.16
72,1.115,39.0,1.090,1.090,1.300,2.18
73,1.131,39.0,1.110,1.110,1.300,2.22
74,1.147,39.0,1.120,1.120,1.300,2.24
75,1.163,39.0,1.140,1.140,1.300,2.28
76,1.179,39.0,1.150,1.150,1.300,2.30
77,1.196,39.0,1.170,1.170,1.300,2.34
78,1.211,39.0,1.180,1.180,1.300,2.36
79,1.227,38.0,1.190,1.190,1.267,2.38
80,1.243,38.0,1.210,1.210,1.267,2.42
81,1.259,38.0,1.220,1.220,1.267,2.44
82,1.275,37.0,1.240,1.240,1.233,2.48
83,1.291,37.0,1.250,1.250,1.233,2.50
84,1.307,37.0,1.270,1.270,1.233,2.54
85,1.323,37.0,1.280,1.280,1.233,2.56
86,1.339,36.0,1.300,1.300,1.200,2.60
87,1.355,36.0,1.310,1.310,1.200,2.62
88,1.371,36.0,1.330,1.330,1.200,2.66
89,1.387,36.0,1.340,1.340,1.200,2.68
90,1.403,35.0,1.350,1.350,1.167,2.70
91,1.419,35.0,1.370,1.370,1.167,2.74
92,1.435,35.0,1.380,1.380,1.167,2.76
93,1.451,35.0,1.400,1.400,1.167,2.80
94,1.467,35.0,1.410,1.410,1.167,2.82
95,1.483,34.0,1.430,1.430,1.133,2.86
96,1.499,34.0,1.440,1.440,1.133,2.88
97,1.516,34.0,1.460,1.460,1.133,2.92
98,1.532,34.0,1.470,1.470,1.133,2.94
99,1.548,33.0,1.490,1.490,1.100,2.98
100,1.563,33.0,1.500,1.500,1.100,3.00
101,1.580,33.0,1.510,1.510,1.100,3.02
102,1.595,33.0,1.530,1.530,1.100,3.06
103,1.611,33.0,1.540,1.540,1.100,3.08
104,1.627,32.0,1.560,1.560,1.067,3.12
105,1.644,32.0,1.570,1.570,1.067,3.14
106,1.660,32.0,1.590,1.590,1.067,3.18
107,1.675,32.0,1.600,1.600,1.067,3.20
108,1.692,31.0,1.620,1.620,1.033,3.24
109,1.707,31.0,1.630,1.630,1.033,3.26
110,1.724,31.0,1.650,1.650,1.033,3.30
111,1.740,30.0,1.660,1.660,1.000,3.32
112,1.756,29.0,1.670,1.670,0.967,3.34
113,1.772,28.0,1.690,1.690,0.933,3.38
114,1.788,27.0,1.700,1.700,0.900,3.40
115,1.804,26.0,1.720,1.720,0.867,3.44
116,1.819,24.0,1.730,1.730,0.800,3.46
117,1.835,20.0,1.750,1.750,0.667,3.50
118,1.851,14.0,1.760,1.760,0.467,3.52
