일련번호,시간,하중,변위,테이블,강도,변형율
,[sec],[kgf],[mm],[mm],[kgf/mm²],[%]
1,0.000,0.0,0.000,0.000,0.000,0.00
2,0.000,10.0,0.000,0.070,0.333,0.00
3,0.010,11.0,0.080,0.080,0.367,0.16
4,0.026,12.0,0.100,0.100,0.400,0.20
5,0.042,12.0,0.110,0.110,0.400,0.22
6,0.059,13.0,0.130,0.130,0.433,0.26
7,0.075,14.0,0.140,0.140,0.467,0.28
8,0.091,14.0,0.160,0.160,0.467,0.32
9,0.107,15.0,0.170,0.170,0.500,0.34
10,0.123,15.0,0.190,0.190,0.500,0.38
11,0.139,16.0,0.200,0.200,0.533,0.40
12,0.154,16.0,0.220,0.220,0.533,0.44
13,0.170,17.0,0.230,0.230,0.567,0.46
14,0.186,17.0,0.250,0.250,0.567,0.50
15,0.203,17.0,0.260,0.260,0.567,0.52
16,0.219,18.0,0.280,0.280,0.600,0.56
17,0.234,18.0,0.290,0.290,0.600,0.58
18,0.250,18.0,0.310,0.310,0.600,0.62
19,0.266,19.0,0.320,0.320,0.633,0.64
20,0.282,19.0,0.330,0.330,0.633,0.66
21,0.298,19.0,0.350,0.350,0.633,0.70
22,0.314,20.0,0.360,0.360,0.667,0.72
23,0.331,20.0,0.380,0.380,0.667,0.76
24,0.346,21.0,0.390,0.390,0.700,0.78
25,0.361,22.0,0.410,0.410,0.733,0.82
26,0.378,22.0,0.420,0.420,0.733,0.84
27,0.394,23.0,0.440,0.440,0.767,0.88
28,0.411,24.0,0.450,0.450,0.800,0.90
29,0.427,24.0,0.470,0.470,0.800,0.94
30,0.443,25.0,0.480,0.480,0.833,0.96
31,0.458,25.0,0.500,0.500,0.833,1.00
32,0.474,25.0,0.510,0.510,0.833,1.02
33,0.490,23.0,0.530,0.530,0.767,1.06
34,0.507,21.0,0.540,0.540,0.700,1.08
35,0.522,21.0,0.550,0.550,0.700,1.10
36,0.538,20.0,0.570,0.570,0.667,1.14
37,0.554,20.0,0.580,0.580,0.667,1.16
38,0.570,20.0,0.600,0.600,0.667,1.20
39,0.586,20.0,0.610,0.610,0.667,1.22
40,0.602,20.0,0.630,0.630,0.667,1.26
41,0.618,20.0,0.640,0.640,0.667,1.28
42,0.634,20.0,0.660,0.660,0.667,1.32
43,0.651,20.0,0.670,0.670,0.667,1.34
44,0.666,21.0,0.690,0.690,0.700,1.38
45,0.683,22.0,0.700,0.700,0.733,1.40
46,0.698,22.0,0.720,0.720,0.733,1.44
47,0.714,23.0,0.730,0.730,0.767,1.46
48,0.730,24.0,0.750,0.750,0.800,1.50
49,0.746,25.0,0.760,0.760,0.833,1.52
50,0.762,26.0,0.770,0.770,0.867,1.54
51,0.778,26.0,0.790,0.790,0.867,1.58
52,0.795,27.0,0.800,0.800,0.900,1.60
53,0.811,28.0,0.820,0.820,0.933,1.64
54,0.827,28.0,0.830,0.830,0.933,1.66
55,0.843,29.0,0.850,0.850,0.967,1.70
56,0.858,30.0,0.860,0.860,1.000,1.72
57,0.874,31.0,0.880,0.880,1.033,1.76
58,0.890,32.0,0.890,0.890,1.067,1.78
59,0.906,33.0,0.910,0.910,1.100,1.82
60,0.922,33.0,0.920,0.920,1.100,1.84
61,0.938,34.0,0.940,0.940,1.133,1.88
62,0.954,35.0,0.950,0.950,1.167,1.90
63,0.971,35.0,0.960,0.960,1.167,1.92
64,0.987,36.0,0.980,0.980,1.200,1.96
65,1.002,37.0,0.990,0.990,1.233,1.98
66,1.018,37.0,1.010,1.010,1.233,2.02
67,1.034,38.0,1.020,1.020,1.267,2.04
68,1.051,38.0,1.040,1.040,1.267,2.08
69,1.066,39.0,1.050,1.050,1.300,2.10
70,1.082,39.0,1.070,1.070,1.300,2.14
71,1.099,40.0,1.080,1.080,1.333,2.16
72,1.115,40.0,1.100,1.100,1.333,2.20
73,1.131,41.0,1.110,1.110,1.367,2.22
74,1.147,41.0,1.130,1.130,1.367,2.26
75,1.163,41.0,1.140,1.140,1.367,2.28
76,1.178,42.0,1.150,1.150,1.400,2.30
77,1.194,42.0,1.170,1.170,1.400,2.34
78,1.211,42.0,1.180,1.180,1.400,2.36
79,1.226,43.0,1.200,1.200,1.433,2.40
80,1.243,43.0,1.210,1.210,1.433,2.42
81,1.259,43.0,1.230,1.230,1.433,2.46
82,1.275,44.0,1.240,1.240,1.467,2.48
83,1.291,44.0,1.260,1.260,1.467,2.52
84,1.307,44.0,1.270,1.270,1.467,2.54
85,1.323,44.0,1.290,1.290,1.467,2.58
86,1.339,45.0,1.300,1.300,1.500,2.60
87,1.355,45.0,1.310,1.310,1.500,2.62
88,1.371,45.0,1.330,1.330,1.500,2.66
89,1.387,45.0,1.340,1.340,1.500,2.68
90,1.403,45.0,1.360,1.360,1.500,2.72
91,1.419,45.0,1.370,1.370,1.500,2.74
92,1.435,45.0,1.390,1.390,1.500,2.78
93,1.451,45.0,1.400,1.400,1.500,2.80
94,1.467,45.0,1.420,1.420,1.500,2.84
95,1.482,45.0,1.430,1.430,1.500,2.86
96,1.498,45.0,1.450,1.450,1.500,2.90
97,1.515,45.0,1.460,1.460,1.500,2.92
98,1.531,45.0,1.470,1.470,1.500,2.94
99,1.547,45.0,1.490,1.490,1.500,2.98
100,1.563,44.0,1.500,1.500,1.467,3.00
101,1.579,44.0,1.520,1.520,1.467,3.04
102,1.595,43.0,1.530,1.530,1.433,3.06
103,1.611,43.0,1.550,1.550,1.433,3.10
104,1.627,43.0,1.560,1.560,1.433,3.12
105,1.643,42.0,1.580,1.580,1.400,3.16
106,1.659,42.0,1.590,1.590,1.400,3.18
107,1.675,42.0,1.610,1.610,1.400,3.22
108,1.691,41.0,1.620,1.620,1.367,3.24
109,1.707,41.0,1.630,1.630,1.367,3.26
110,1.723,41.0,1.650,1.650,1.367,3.30
111,1.738,41.0,1.660,1.660,1.367,3.32
112,1.755,40.0,1.680,1.680,1.333,3.36
113,1.770,40.0,1.690,1.690,1.333,3.38
114,1.786,40.0,1.710,1.710,1.333,3.42
115,1.803,40.0,1.720,1.720,1.333,3.44
116,1.819,39.0,1.740,1.740,1.300,3.48
117,1.834,39.0,1.750,1.750,1.300,3.50
118,1.851,38.0,1.770,1.770,1.267,3.54
119,1.867,38.0,1.780,1.780,1.267,3.56
120,1.882,38.0,1.790,1.790,1.267,3.58
121,1.899,37.0,1.810,1.810,1.233,3.62
122,1.915,37.0,1.820,1.820,1.233,3.64
123,1.931,36.0,1.840,1.840,1.200,3.68
124,1.947,35.0,1.850,1.850,1.167,3.70
125,1.963,34.0,1.870,1.870,1.133,3.74
126,1.979,32.0,1.880,1.880,1.067,3.76
127,1.995,28.0,1.900,1.900,0.933,3.80
128,2.012,19.0,1.910,1.910,0.633,3.82
