일련번호,시간,하중,변위,테이블,강도,변형율
,[sec],[kgf],[mm],[mm],[kgf/mm²],[%]
1,0.000,0.0,0.000,0.000,0.000,0.00
2,0.000,9.0,0.000,0.070,0.300,0.00
3,0.011,10.0,0.080,0.080,0.333,0.16
4,0.027,10.0,0.100,0.100,0.333,0.20
5,0.043,11.0,0.110,0.110,0.367,0.22
6,0.059,12.0,0.130,0.130,0.400,0.26
7,0.075,12.0,0.140,0.140,0.400,0.28
8,0.090,13.0,0.160,0.160,0.433,0.32
9,0.106,14.0,0.170,0.170,0.467,0.34
10,0.122,15.0,0.190,0.190,0.500,0.38
11,0.138,15.0,0.200,0.200,0.500,0.40
12,0.154,16.0,0.220,0.220,0.533,0.44
13,0.171,17.0,0.230,0.230,0.567,0.46
14,0.186,17.0,0.250,0.250,0.567,0.50
15,0.203,18.0,0.260,0.260,0.600,0.52
16,0.218,18.0,0.280,0.280,0.600,0.56
17,0.235,18.0,0.290,0.290,0.600,0.58
18,0.250,19.0,0.300,0.300,0.633,0.60
19,0.267,19.0,0.320,0.320,0.633,0.64
20,0.282,20.0,0.330,0.330,0.667,0.66
21,0.298,20.0,0.350,0.350,0.667,0.70
22,0.314,21.0,0.360,0.360,0.700,0.72
23,0.330,21.0,0.380,0.380,0.700,0.76
24,0.347,21.0,0.390,0.390,0.700,0.78
25,0.363,21.0,0.410,0.410,0.700,0.82
26,0.379,21.0,0.420,0.420,0.700,0.84
27,0.395,21.0,0.440,0.440,0.700,0.88
28,0.410,20.0,0.450,0.450,0.667,0.90
29,0.427,20.0,0.470,0.470,0.667,0.94
30,0.442,20.0,0.480,0.480,0.667,0.96
31,0.458,20.0,0.500,0.500,0.667,1.00
32,0.475,19.0,0.510,0.510,0.633,1.02
33,0.491,19.0,0.520,0.520,0.633,1.04
34,0.506,19.0,0.540,0.540,0.633,1.08
35,0.523,19.0,0.550,0.550,0.633,1.10
36,0.539,19.0,0.570,0.570,0.633,1.14
37,0.554,19.0,0.580,0.580,0.633,1.16
38,0.571,19.0,0.600,0.600,0.633,1.20
39,0.587,19.0,0.610,0.610,0.633,1.22
40,0.602,19.0,0.630,0.630,0.633,1.26
41,0.618,19.0,0.640,0.640,0.633,1.28
42,0.634,19.0,0.660,0.660,0.633,1.32
43,0.651,19.0,0.670,0.670,0.633,1.34
44,0.667,20.0,0.690,0.690,0.667,1.38
45,0.683,20.0,0.700,0.700,0.667,1.40
46,0.699,21.0,0.720,0.720,0.700,1.44
47,0.714,21.0,0.730,0.730,0.700,1.46
48,0.731,22.0,0.740,0.740,0.733,1.48
49,0.747,23.0,0.760,0.760,0.767,1.52
50,0.763,23.0,0.770,0.770,0.767,1.54
51,0.779,24.0,0.790,0.790,0.800,1.58
52,0.794,24.0,0.800,0.800,0.800,1.60
53,0.811,25.0,0.820,0.820,0.833,1.64
54,0.828,26.0,0.830,0.830,0.867,1.66
55,0.843,26.0,0.850,0.850,0.867,1.70
56,0.859,27.0,0.860,0.860,0.900,1.72
57,0.875,27.0,0.880,0.880,0.900,1.76
58,0.890,28.0,0.890,0.890,0.933,1.78
59,0.907,28.0,0.910,0.910,0.933,1.82
60,0.923,29.0,0.920,0.920,0.967,1.84
61,0.939,30.0,0.930,0.930,1.000,1.86
62,0.955,30.0,0.950,0.950,1.000,1.90
63,0.970,31.0,0.960,0.960,1.033,1.92
64,0.987,31.0,0.980,0.980,1.033,1.96
65,1.003,32.0,0.990,0.990,1.067,1.98
66,1.019,32.0,1.010,1.010,1.067,2.02
67,1.035,33.0,1.020,1.020,1.100,2.04
68,1.050,33.0,1.040,1.040,1.100,2.08
69,1.067,33.0,1.050,1.050,1.100,2.10
70,1.083,34.0,1.070,1.070,1.133,2.14
71,1.099,34.0,1.080,1.080,1.133,2.16
72,1.115,34.0,1.100,1.100,1.133,2.20
73,1.131,35.0,1.110,1.110,1.167,2.22
74,1.147,35.0,1.120,1.120,1.167,2.24
75,1.163,35.0,1.140,1.140,1.167,2.28
76,1.179,35.0,1.150,1.150,1.167,2.30
77,1.195,36.0,1.170,1.170,1.200,2.34
78,1.211,36.0,1.180,1.180,1.200,2.36
79,1.227,36.0,1.200,1.200,1.200,2.40
80,1.243,36.0,1.210,1.210,1.200,2.42
81,1.260,36.0,1.230,1.230,1.200,2.46
82,1.275,36.0,1.240,1.240,1.200,2.48
83,1.291,36.0,1.260,1.260,1.200,2.52
84,1.308,36.0,1.270,1.270,1.200,2.54
85,1.323,36.0,1.290,1.290,1.200,2.58
86,1.339,35.0,1.300,1.300,1.167,2.60
87,1.356,35.0,1.310,1.310,1.167,2.62
88,1.371,35.0,1.330,1.330,1.167,2.66
89,1.388,34.0,1.340,1.340,1.133,2.68
90,1.403,34.0,1.360,1.360,1.133,2.72
91,1.418,33.0,1.370,1.370,1.100,2.74
92,1.435,33.0,1.390,1.390,1.100,2.78
93,1.451,32.0,1.400,1.400,1.067,2.80
94,1.467,32.0,1.420,1.420,1.067,2.84
95,1.483,31.0,1.430,1.430,1.033,2.86
96,1.499,31.0,1.450,1.450,1.033,2.90
97,1.516,30.0,1.460,1.460,1.000,2.92
98,1.531,30.0,1.470,1.470,1.000,2.94
99,1.546,29.0,1.490,1.490,0.967,2.98
100,1.563,28.0,1.500,1.500,0.933,3.00
101,1.579,27.0,1.520,1.520,0.900,3.04
102,1.595,26.0,1.530,1.530,0.867,3.06
103,1.611,26.0,1.550,1.550,0.867,3.10
104,1.627,25.0,1.560,1.560,0.833,3.12
105,1.643,23.0,1.580,1.580,0.767,3.16
106,1.658,22.0,1.590,1.590,0.733,3.18
107,1.675,21.0,1.610,1.610,0.700,3.22
108,1.691,20.0,1.620,1.620,0.667,3.24
109,1.709,18.0,1.630,1.630,0.600,3.26
